wl,reference,5,10,15,30,50,70,p3ht
371.12137,,,,,,,,0.3987199999999999
371.97224,,,,,,,,0.71559
372.82,,1.436,0.4773,0.7287,0.5227,0.6335,0.4942,
372.82311,,,,,,,,0.6293300000000001
373.67,,1.298,0.5224,0.7659,0.644,0.6364,0.5722,
373.67398,,,,,,,,0.45474
374.52,,1.154,0.7084,0.8114,0.7528,0.7102,0.6696,
374.52486,,,,,,,,0.3824099999999999
375.37573,,,,,,,,0.62645
375.38,,1.017,0.8615,0.8366,0.8056,0.7678,0.8061,
376.2266,,,,,,,,0.6068
376.23,,0.7842,0.948,0.8492,0.8121,0.7867,0.8917,
377.07747,,,,,,,,0.37986
377.08,,0.6401,1.084,0.8333,0.846,0.8473,0.9692,
377.92834,,,,,,,,0.47235
377.93,,0.6295,1.139,0.8023,0.8689,0.8954,0.9344,
378.77921,,,,,,,,0.45143
378.78,,0.6329,1.06,0.7438,0.9084,0.993,0.9042,
379.63,,0.6278,0.9662,0.6519,0.8729,0.9999,0.9107,
379.63009,,,,,,,,0.39798
380.48,,0.6438,0.9218,0.5957,0.8764,0.9935,0.9896,
380.48096,,,,,,,,0.49309
381.33,,0.6319,0.722,0.5481,0.7652,0.8722,0.9512,
381.33183,,,,,,,,0.61161
382.18,,0.6056,0.6352,0.5203,0.7277,0.8432,0.958,
382.1827,,,,,,,,0.51578
383.03,,0.5834,0.6996,0.5067,0.7027,0.8732,0.9789,
383.03357,,,,,,,,0.38456
383.88,,0.5408,0.7475,0.5005,0.7038,0.8519,1.077,
383.88444,,,,,,,,0.28068
384.73532,,,,,,,,0.29814
384.74,,0.5182,0.7958,0.5015,0.7325,0.8645,1.116,
385.58619,,,,,,,,0.31138
385.59,,0.4854,0.892,0.4768,0.781,0.9202,1.148,
386.16,0.4372,,,,,,,
386.43706,,,,,,,,0.32195
386.44,,0.4451,0.99,0.4533,0.8343,0.9746,1.128,
387.078,0.4895,,,,,,,
387.28793,,,,,,,,0.34005
387.29,,0.4184,1.028,0.4444,0.8513,1.006,1.098,
387.996,0.5015,,,,,,,
388.1388,,,,,,,,0.3105
388.14,,0.3972,1.052,0.4198,0.8504,0.9916,1.08,
388.913,0.5153,,,,,,,
388.9896700000001,,,,,,,,0.30931
388.99,,0.3803,1.061,0.3812,0.8595,0.8889,1.036,
389.831,0.5365,,,,,,,
389.84,,0.3564,1.003,0.3444,0.8226,0.817,0.9523,
389.84055,,,,,,,,0.27513
390.69,,0.3508,0.9613,0.3131,0.8064,0.8057,0.9061,
390.69142,,,,,,,,0.3058
390.749,0.5445,,,,,,,
391.54,,0.3412,0.969,0.2916,0.8235,0.7933,0.8597,
391.54229,,,,,,,,0.2969199999999999
391.666,0.538,,,,,,,
392.39,,0.322,0.9759,0.2736,0.8653,0.7772,0.8817,
392.39316,,,,,,,,0.27487
392.584,0.5482,,,,,,,
393.24,,0.3073,0.9588,0.2601,0.8733,0.7925,0.8836,
393.24403,,,,,,,,0.2299199999999999
393.502,0.5456,,,,,,,
394.09,,0.2519,0.9891,0.2251,0.8803,0.8321,0.8975,
394.0949,,,,,,,,0.28457
394.42,0.5426,,,,,,,
394.94577,,,,,,,,0.28981
394.95,,0.1535,1.019,0.1618,0.8961,0.8803,0.9162,
395.337,0.5333,,,,,,,
395.79665,,,,,,,,0.37396
395.8,,0.1177,1.06,0.1038,0.8923,0.9152,0.9248,
396.255,0.5218,,,,,,,
396.64752,,,,,,,,0.38799
396.65,,0.1232,1.081,0.07116,0.8948,0.9247,0.9256,
397.173,0.5109,,,,,,,
397.49839,,,,,,,,0.1774
397.5,,0.1163,1.058,0.06462,0.9075,0.8889,0.8953,
398.09,0.5132,,,,,,,
398.34926,,,,,,,,0.18602
398.35,,0.1254,1.027,0.09113,0.915,0.8814,0.858,
399.008,0.5226,,,,,,,
399.2,,0.2498,1.016,0.1774,0.9221,0.8732,0.8573,
399.20013,,,,,,,,0.41801
399.926,0.5314,,,,,,,
400.05,,0.4324,1.052,0.2872,0.926,0.8759,0.8623,
400.051,,,,,,,,0.39764
400.844,0.545,,,,,,,
400.9,,0.6372,1.103,0.3886,0.9156,0.8908,0.8652,
400.90188,,,,,,,,0.43272
401.75,,0.9099,1.131,0.5182,0.8955,0.9014,0.8699,
401.75275,,,,,,,,0.4008199999999999
401.761,0.5646,,,,,,,
402.6,,1.157,1.187,0.6609,0.8821,0.9027,0.9093,
402.60362,,,,,,,,0.36484
402.679,0.5807,,,,,,,
403.45,,1.349,1.253,0.8021,0.8772,0.8962,0.9422,
403.45449,,,,,,,,0.57622
403.597,0.5903,,,,,,,
404.30536,,,,,,,,0.7817
404.31,,1.549,1.283,0.9819,0.8734,0.8752,0.949,
404.514,0.6035,,,,,,,
405.15623,,,,,,,,0.89245
405.16,,1.664,1.298,1.186,0.8848,0.8773,0.9775,
405.432,0.6181,,,,,,,
406.00711,,,,,,,,0.83567
406.01,,1.632,1.341,1.372,0.9269,0.9112,0.9999,
406.35,0.6249,,,,,,,
406.85798,,,,,,,,0.72621
406.86,,1.525,1.363,1.492,0.954,0.9362,1.0,
407.267,0.6268,,,,,,,
407.70885,,,,,,,,0.8738
407.71,,1.455,1.356,1.551,0.9545,0.9315,0.9919,
408.185,0.6284,,,,,,,
408.55972,,,,,,,,0.8342200000000001
408.56,,1.383,1.351,1.512,0.9505,0.932,0.9842,
409.103,0.6325,,,,,,,
409.41,,1.343,1.326,1.408,0.9407,0.9238,0.9639,
409.41059,,,,,,,,0.77477
410.021,0.6389,,,,,,,
410.26,,1.374,1.29,1.307,0.9401,0.919,0.9519,
410.26146,,,,,,,,0.84147
410.938,0.6437,,,,,,,
411.11,,1.416,1.274,1.245,0.9428,0.902,0.9463,
411.11234,,,,,,,,0.88192
411.856,0.6496,,,,,,,
411.96,,1.458,1.264,1.211,0.9443,0.8742,0.9277,
411.96321,,,,,,,,1.19597
412.774,0.658,,,,,,,
412.81,,1.507,1.248,1.237,0.9501,0.8587,0.9181,
412.81408,,,,,,,,1.03277
413.66,,1.502,1.255,1.329,0.9675,0.8657,0.9289,
413.66495,,,,,,,,1.15376
413.691,0.6673,,,,,,,
414.51582,,,,,,,,1.3939
414.52,,1.438,1.286,1.43,0.9804,0.8906,0.9383,
414.609,0.6739,,,,,,,
415.36669,,,,,,,,1.7320099999999998
415.37,,1.371,1.309,1.502,0.9855,0.9142,0.9448,
415.527,0.6753,,,,,,,
416.21756,,,,,,,,1.35117
416.22,,1.346,1.325,1.538,0.9912,0.9298,0.9534,
416.445,0.6732,,,,,,,
417.06844,,,,,,,,1.18124
417.07,,1.34,1.351,1.527,0.995,0.9435,0.9687,
417.362,0.669,,,,,,,
417.91931,,,,,,,,1.14326
417.92,,1.343,1.364,1.493,0.9935,0.9469,0.977,
418.28,0.668,,,,,,,
418.77,,1.339,1.379,1.451,0.9926,0.9544,0.9733,
418.77018,,,,,,,,1.2753
419.198,0.6717,,,,,,,
419.62,,1.351,1.399,1.414,0.9866,0.9557,0.9577,
419.62105,,,,,,,,1.38601
420.115,0.6752,,,,,,,
420.47,,1.366,1.402,1.354,0.9779,0.9458,0.9412,
420.47192,,,,,,,,1.3747
421.033,0.6805,,,,,,,
421.32,,1.374,1.399,1.315,0.9699,0.9326,0.9327,
421.32279000000005,,,,,,,,1.30806
421.951,0.6828,,,,,,,
422.17,,1.351,1.39,1.325,0.9573,0.9162,0.928,
422.17367,,,,,,,,1.19562
422.869,0.6823,,,,,,,
423.02,,1.316,1.374,1.328,0.9435,0.9042,0.9276,
423.02454000000006,,,,,,,,1.02142
423.786,0.6782,,,,,,,
423.87541,,,,,,,,1.02866
423.88,,1.294,1.353,1.33,0.9353,0.897,0.926,
424.704,0.6674,,,,,,,
424.72628,,,,,,,,1.0512
424.73,,1.285,1.321,1.331,0.9296,0.8896,0.9249,
425.57715,,,,,,,,1.11435
425.58,,1.281,1.288,1.33,0.921,0.8864,0.9223,
425.622,0.6515,,,,,,,
426.42802,,,,,,,,1.29513
426.43,,1.267,1.259,1.327,0.9111,0.8826,0.915,
426.539,0.6339,,,,,,,
427.2789,,,,,,,,1.13001
427.28,,1.234,1.228,1.308,0.8998,0.8816,0.9012,
427.457,0.6173,,,,,,,
428.12977,,,,,,,,0.95893
428.13,,1.192,1.196,1.267,0.8847,0.8786,0.8858,
428.375,0.6022,,,,,,,
428.98,,1.149,1.164,1.212,0.8717,0.87,0.8734,
428.9806400000001,,,,,,,,0.93629
429.292,0.5894,,,,,,,
429.83,,1.107,1.141,1.168,0.8647,0.8619,0.871,
429.83151,,,,,,,,0.83829
430.21,0.5778,,,,,,,
430.68,,1.064,1.121,1.13,0.8584,0.8539,0.8725,
430.68238,,,,,,,,0.79819
431.128,0.564,,,,,,,
431.53,,1.031,1.101,1.079,0.8496,0.8461,0.8692,
431.53325,,,,,,,,0.8553299999999999
432.046,0.5512,,,,,,,
432.38,,1.014,1.085,1.031,0.8397,0.8416,0.8627,
432.38413,,,,,,,,0.87582
432.963,0.5385,,,,,,,
433.23,,0.9994,1.071,0.9989,0.8284,0.8378,0.8567,
433.235,,,,,,,,0.8016800000000001
433.881,0.5259,,,,,,,
434.08587,,,,,,,,0.7854
434.09,,0.9923,1.053,0.9767,0.8154,0.8322,0.8489,
434.799,0.5139,,,,,,,
434.93674,,,,,,,,0.8650700000000001
434.94,,0.988,1.037,0.9574,0.8057,0.8258,0.8413,
435.716,0.5029,,,,,,,
435.78761,,,,,,,,0.93151
435.79,,0.9759,1.017,0.9362,0.8,0.8216,0.8335,
436.634,0.4926,,,,,,,
436.63848,,,,,,,,0.94474
436.64,,0.9627,0.9985,0.921,0.7955,0.8212,0.8301,
437.48935,,,,,,,,0.95741
437.49,,0.9506,0.984,0.9146,0.7949,0.8235,0.8345,
437.552,0.4823,,,,,,,
438.34,,0.9368,0.9691,0.9105,0.7975,0.8271,0.841,
438.34023,,,,,,,,0.90983
438.47,0.4727,,,,,,,
439.19,,0.9271,0.9517,0.9063,0.7987,0.8266,0.8441,
439.1911,,,,,,,,0.87195
439.387,0.4639,,,,,,,
440.04,,0.9206,0.9346,0.8968,0.7985,0.8239,0.8456,
440.04197,,,,,,,,0.87436
440.305,0.4564,,,,,,,
440.89,,0.9097,0.9228,0.8829,0.7984,0.8255,0.8484,
440.89284,,,,,,,,0.90567
441.223,0.4508,,,,,,,
441.74,,0.8936,0.9117,0.8691,0.7961,0.8276,0.8472,
441.74371,,,,,,,,0.94597
442.14,0.4457,,,,,,,
442.59,,0.8797,0.8986,0.8578,0.7927,0.8271,0.8426,
442.59458,,,,,,,,0.93377
443.058,0.4409,,,,,,,
443.44546,,,,,,,,0.88734
443.45,,0.8696,0.8846,0.8461,0.79,0.8242,0.8369,
443.976,0.4356,,,,,,,
444.29633,,,,,,,,0.88674
444.3,,0.8608,0.8725,0.8368,0.7885,0.8223,0.831,
444.893,0.4305,,,,,,,
445.1472,,,,,,,,0.88623
445.15,,0.8548,0.8634,0.8306,0.7865,0.8238,0.8286,
445.811,0.4259,,,,,,,
445.99807,,,,,,,,0.8705700000000001
446.0,,0.8499,0.8586,0.8241,0.7852,0.8275,0.8306,
446.729,0.4226,,,,,,,
446.84894,,,,,,,,0.8814700000000001
446.85,,0.8465,0.8565,0.8185,0.7859,0.8313,0.8337,
447.647,0.4204,,,,,,,
447.69981,,,,,,,,0.89931
447.7,,0.8457,0.857,0.8179,0.788,0.8335,0.8393,
448.55,,0.8421,0.8601,0.8194,0.7912,0.8355,0.8451,
448.55069,,,,,,,,0.92538
448.564,0.4185,,,,,,,
449.4,,0.8374,0.8641,0.8194,0.7956,0.8399,0.8491,
449.40156,,,,,,,,0.94313
449.482,0.4175,,,,,,,
450.25,,0.8331,0.8676,0.8187,0.7997,0.8449,0.8515,
450.25243,,,,,,,,0.94868
450.4,0.417,,,,,,,
451.1,,0.8325,0.8677,0.8203,0.8026,0.8469,0.8513,
451.1033,,,,,,,,0.92881
451.317,0.4166,,,,,,,
451.95,,0.8367,0.8642,0.8235,0.8048,0.8465,0.8502,
451.95417,,,,,,,,0.8937700000000001
452.235,0.4161,,,,,,,
452.80504,,,,,,,,0.8849100000000001
452.81,,0.8422,0.86,0.8281,0.8054,0.8463,0.8505,
453.153,0.4155,,,,,,,
453.65592,,,,,,,,0.91729
453.66,,0.846,0.8566,0.8333,0.8058,0.8493,0.8539,
454.071,0.4151,,,,,,,
454.50679,,,,,,,,0.95177
454.51,,0.8476,0.8558,0.8367,0.8085,0.8554,0.8589,
454.988,0.4157,,,,,,,
455.35766,,,,,,,,0.95436
455.36,,0.8501,0.8571,0.8395,0.8135,0.8615,0.8641,
455.906,0.417,,,,,,,
456.20853,,,,,,,,0.93356
456.21,,0.854,0.8589,0.843,0.82,0.866,0.8705,
456.824,0.4178,,,,,,,
457.0594,,,,,,,,0.93192
457.06,,0.856,0.8605,0.8445,0.826,0.8689,0.8754,
457.741,0.4182,,,,,,,
457.91,,0.8558,0.8612,0.8432,0.8306,0.8706,0.8777,
457.91027,,,,,,,,0.95444
458.659,0.4185,,,,,,,
458.76,,0.8557,0.8614,0.8421,0.8342,0.8717,0.879,
458.76115,,,,,,,,0.96786
459.577,0.4188,,,,,,,
459.61,,0.8572,0.8626,0.8433,0.8384,0.8737,0.8803,
459.61202,,,,,,,,0.96458
460.46,,0.8612,0.866,0.8473,0.8431,0.8778,0.8827,
460.46289,,,,,,,,0.94196
460.495,0.4194,,,,,,,
461.31,,0.8654,0.8696,0.8533,0.8465,0.8809,0.8849,
461.31376,,,,,,,,0.91349
461.412,0.4201,,,,,,,
462.16,,0.8673,0.8729,0.8597,0.8495,0.8833,0.8873,
462.16463,,,,,,,,0.9148
462.33,0.4213,,,,,,,
463.0155,,,,,,,,0.93359
463.02,,0.8678,0.8777,0.8634,0.8535,0.887,0.891,
463.248,0.423,,,,,,,
463.86637,,,,,,,,0.94701
463.87,,0.8691,0.8834,0.8658,0.858,0.8917,0.896,
464.165,0.4255,,,,,,,
464.71725,,,,,,,,0.9675
464.72,,0.8732,0.8871,0.8674,0.8626,0.896,0.9018,
465.083,0.4282,,,,,,,
465.56812,,,,,,,,0.9941
465.57,,0.878,0.8885,0.8678,0.8669,0.899,0.9071,
466.001,0.4305,,,,,,,
466.41899000000006,,,,,,,,1.01525
466.42,,0.8823,0.8897,0.8701,0.8712,0.9026,0.9111,
466.918,0.4326,,,,,,,
467.26986,,,,,,,,1.00719
467.27,,0.8856,0.8915,0.8745,0.8761,0.9071,0.915,
467.836,0.4344,,,,,,,
468.12,,0.8881,0.8952,0.8787,0.8826,0.913,0.9204,
468.12073,,,,,,,,0.98041
468.754,0.4359,,,,,,,
468.97,,0.8929,0.8996,0.8838,0.8901,0.9197,0.9254,
468.9716,,,,,,,,0.97265
469.672,0.437,,,,,,,
469.82,,0.8994,0.9025,0.8911,0.8964,0.9244,0.9278,
469.82248,,,,,,,,0.98337
470.589,0.438,,,,,,,
470.67,,0.9054,0.9049,0.8977,0.9012,0.9271,0.9295,
470.67335,,,,,,,,1.01352
471.507,0.4396,,,,,,,
471.52,,0.9096,0.9092,0.9005,0.9059,0.9291,0.9315,
471.52422,,,,,,,,1.02356
472.37509000000006,,,,,,,,1.02018
472.38,,0.9139,0.9146,0.9021,0.9105,0.9309,0.9338,
472.425,0.4418,,,,,,,
473.22596,,,,,,,,1.02614
473.23,,0.92,0.9193,0.9044,0.9145,0.9324,0.9362,
473.342,0.4444,,,,,,,
474.07683,,,,,,,,1.02442
474.08,,0.9262,0.9232,0.9076,0.9185,0.9349,0.9387,
474.26,0.4472,,,,,,,
474.92771,,,,,,,,1.012
474.93,,0.9311,0.9271,0.9119,0.9231,0.9392,0.9411,
475.178,0.4497,,,,,,,
475.77858,,,,,,,,0.99986
475.78,,0.9341,0.9315,0.9168,0.9284,0.945,0.9442,
476.096,0.4518,,,,,,,
476.62945,,,,,,,,0.9974
476.63,,0.936,0.9368,0.9225,0.9345,0.9517,0.9491,
477.013,0.4538,,,,,,,
477.48,,0.939,0.942,0.9301,0.9408,0.9584,0.9538,
477.48032,,,,,,,,1.00617
477.931,0.4558,,,,,,,
478.33,,0.9426,0.946,0.9397,0.9457,0.9633,0.9568,
478.3311900000001,,,,,,,,1.02606
478.849,0.4576,,,,,,,
479.18,,0.9448,0.9492,0.9477,0.9496,0.9662,0.9595,
479.18206,,,,,,,,1.05386
479.766,0.4595,,,,,,,
480.03,,0.9466,0.9525,0.9523,0.9533,0.9673,0.9616,
480.03294000000005,,,,,,,,1.07283
480.684,0.4617,,,,,,,
480.88,,0.9501,0.9559,0.9554,0.9563,0.9666,0.9626,
480.88381,,,,,,,,1.06884
481.602,0.464,,,,,,,
481.73,,0.9547,0.9588,0.9588,0.9582,0.9655,0.963,
481.73468,,,,,,,,1.05056
482.519,0.466,,,,,,,
482.58555,,,,,,,,1.03946
482.59,,0.9588,0.9614,0.962,0.9602,0.9653,0.9637,
483.43642,,,,,,,,1.04491
483.437,0.4678,,,,,,,
483.44,,0.9635,0.964,0.9643,0.9628,0.9661,0.9648,
484.28729,,,,,,,,1.04561
484.29,,0.9683,0.9672,0.9662,0.9663,0.9671,0.9665,
484.355,0.4694,,,,,,,
485.13816,,,,,,,,1.03364
485.14,,0.9719,0.9709,0.9685,0.9699,0.968,0.9691,
485.273,0.4709,,,,,,,
485.9890400000001,,,,,,,,1.0176
485.99,,0.9751,0.9741,0.971,0.9727,0.9684,0.9716,
486.19,0.4727,,,,,,,
486.83991,,,,,,,,1.01187
486.84,,0.9784,0.9761,0.9741,0.9748,0.9684,0.9732,
487.108,0.4748,,,,,,,
487.69,,0.9807,0.9775,0.9774,0.977,0.9689,0.9747,
487.69078,,,,,,,,1.01341
488.026,0.4767,,,,,,,
488.54,,0.9827,0.9792,0.9806,0.9798,0.9701,0.9762,
488.54165,,,,,,,,1.01637
488.943,0.4784,,,,,,,
489.39,,0.9852,0.9817,0.984,0.9827,0.9718,0.977,
489.39252,,,,,,,,1.01895
489.861,0.4799,,,,,,,
490.24,,0.9876,0.9845,0.9883,0.9858,0.974,0.9777,
490.24339,,,,,,,,1.01776
490.779,0.4816,,,,,,,
491.09,,0.9904,0.9874,0.9932,0.9891,0.9767,0.9785,
491.09427,,,,,,,,1.02474
491.697,0.4833,,,,,,,
491.94514,,,,,,,,1.04144
491.95,,0.9948,0.9905,0.9972,0.9926,0.9792,0.9794,
492.614,0.485,,,,,,,
492.79601,,,,,,,,1.04653
492.8,,0.9997,0.9937,1.0,0.9959,0.9811,0.9807,
493.532,0.4866,,,,,,,
493.64688,,,,,,,,1.04298
493.65,,1.004,0.9967,1.003,0.9983,0.9824,0.9823,
494.45,0.4884,,,,,,,
494.49775,,,,,,,,1.04843
494.5,,1.007,0.9995,1.006,0.9998,0.9832,0.9835,
495.34862,,,,,,,,1.063
495.35,,1.011,1.002,1.01,1.001,0.984,0.9843,
495.367,0.4904,,,,,,,
496.1995,,,,,,,,1.06952
496.2,,1.014,1.004,1.015,1.001,0.985,0.9849,
496.285,0.4924,,,,,,,
497.05,,1.017,1.006,1.02,1.002,0.9857,0.9854,
497.05037,,,,,,,,1.06188
497.203,0.494,,,,,,,
497.9,,1.02,1.008,1.024,1.003,0.9861,0.9854,
497.90124,,,,,,,,1.05237
498.121,0.4954,,,,,,,
498.75,,1.022,1.009,1.028,1.005,0.9864,0.9849,
498.75211,,,,,,,,1.0441
499.038,0.4969,,,,,,,
499.6,,1.023,1.01,1.031,1.007,0.9865,0.9843,
499.60298,,,,,,,,1.03799
499.956,0.4985,,,,,,,
500.45,,1.024,1.012,1.033,1.009,0.9864,0.9834,
500.45385,,,,,,,,1.0430700000000002
500.874,0.5003,,,,,,,
501.3,,1.026,1.013,1.034,1.011,0.986,0.9829,
501.30473,,,,,,,,1.06158
501.791,0.502,,,,,,,
502.1556,,,,,,,,1.08511
502.16,,1.03,1.015,1.035,1.013,0.9856,0.983,
502.709,0.5036,,,,,,,
503.00647,,,,,,,,1.1061
503.01,,1.033,1.016,1.037,1.015,0.9855,0.9832,
503.627,0.5052,,,,,,,
503.85734,,,,,,,,1.1161299999999998
503.86,,1.036,1.018,1.039,1.017,0.9857,0.9832,
504.544,0.5068,,,,,,,
504.70821,,,,,,,,1.11065
504.71,,1.038,1.019,1.041,1.018,0.986,0.9832,
505.462,0.5082,,,,,,,
505.55908,,,,,,,,1.10029
505.56,,1.041,1.02,1.043,1.019,0.9862,0.983,
506.38,0.5094,,,,,,,
506.40995,,,,,,,,1.09597
506.41,,1.043,1.021,1.045,1.02,0.9862,0.9825,
507.26,,1.043,1.022,1.046,1.021,0.9859,0.9815,
507.26083,,,,,,,,1.09817
507.298,0.5106,,,,,,,
508.11,,1.044,1.023,1.048,1.022,0.9852,0.9801,
508.1117,,,,,,,,1.10054
508.215,0.5118,,,,,,,
508.96,,1.045,1.024,1.049,1.023,0.9842,0.9788,
508.96257,,,,,,,,1.10219
509.133,0.5131,,,,,,,
509.81,,1.047,1.025,1.051,1.024,0.9833,0.9779,
509.81344,,,,,,,,1.1043
510.051,0.5142,,,,,,,
510.66,,1.049,1.026,1.053,1.024,0.9825,0.9772,
510.66431,,,,,,,,1.10334
510.968,0.5154,,,,,,,
511.51518,,,,,,,,1.10398
511.52,,1.051,1.026,1.054,1.025,0.9817,0.9763,
511.886,0.5166,,,,,,,
512.36606,,,,,,,,1.1080299999999998
512.37,,1.054,1.027,1.056,1.027,0.9812,0.9754,
512.804,0.518,,,,,,,
513.2169299999999,,,,,,,,1.10749
513.22,,1.058,1.027,1.057,1.028,0.9808,0.9746,
513.722,0.5192,,,,,,,
514.0678,,,,,,,,1.10615
514.07,,1.061,1.028,1.058,1.029,0.9802,0.9737,
514.639,0.5203,,,,,,,
514.91867,,,,,,,,1.10689
514.92,,1.063,1.029,1.059,1.029,0.9792,0.9725,
515.557,0.5213,,,,,,,
515.76954,,,,,,,,1.10309
515.77,,1.065,1.029,1.061,1.029,0.9777,0.9707,
516.475,0.5222,,,,,,,
516.62,,1.066,1.029,1.063,1.028,0.976,0.9686,
516.62041,,,,,,,,1.09858
517.392,0.5232,,,,,,,
517.47,,1.066,1.029,1.065,1.027,0.9739,0.9663,
517.4712900000001,,,,,,,,1.09819
518.31,0.5239,,,,,,,
518.32,,1.067,1.029,1.067,1.026,0.9715,0.964,
518.3221599999999,,,,,,,,1.09721
519.17,,1.066,1.028,1.068,1.024,0.969,0.9614,
519.1730299999999,,,,,,,,1.09472
519.228,0.5245,,,,,,,
520.02,,1.066,1.027,1.069,1.023,0.9665,0.9588,
520.0239,,,,,,,,1.0936
520.145,0.5251,,,,,,,
520.87,,1.067,1.026,1.068,1.022,0.964,0.9564,
520.87477,,,,,,,,1.09411
521.063,0.5258,,,,,,,
521.72564,,,,,,,,1.09486
521.73,,1.067,1.025,1.068,1.021,0.9616,0.9539,
521.981,0.5264,,,,,,,
522.5765200000001,,,,,,,,1.09425
522.58,,1.067,1.024,1.067,1.02,0.9591,0.9513,
522.899,0.5271,,,,,,,
523.4273900000001,,,,,,,,1.09372
523.43,,1.067,1.022,1.067,1.018,0.9562,0.9484,
523.816,0.5277,,,,,,,
524.2782599999999,,,,,,,,1.0970799999999998
524.28,,1.067,1.02,1.068,1.017,0.9532,0.9455,
524.734,0.5282,,,,,,,
525.12913,,,,,,,,1.10389
525.13,,1.067,1.019,1.069,1.015,0.9501,0.9426,
525.652,0.5286,,,,,,,
525.98,,1.068,1.017,1.07,1.014,0.9473,0.9399,1.10468
526.569,0.529,,,,,,,
526.83,,1.069,1.015,1.071,1.012,0.9444,0.9371,
526.83087,,,,,,,,1.09515
527.487,0.5293,,,,,,,
527.68,,1.069,1.013,1.073,1.01,0.9415,0.9345,
527.68175,,,,,,,,1.08509
528.405,0.5293,,,,,,,
528.53,,1.07,1.012,1.074,1.008,0.9384,0.9319,
528.5326200000001,,,,,,,,1.08049
529.323,0.5293,,,,,,,
529.38,,1.07,1.01,1.074,1.006,0.9355,0.9294,
529.38349,,,,,,,,1.07988
530.23,,1.07,1.009,1.074,1.004,0.9327,0.9266,
530.2343599999999,,,,,,,,1.08073
530.24,0.5292,,,,,,,
531.08523,,,,,,,,1.08138
531.09,,1.07,1.007,1.073,1.001,0.9297,0.9237,
531.158,0.5291,,,,,,,
531.9361,,,,,,,,1.08312
531.94,,1.069,1.005,1.071,0.9983,0.9265,0.9207,
532.076,0.5291,,,,,,,
532.78697,,,,,,,,1.08511
532.79,,1.068,1.003,1.07,0.9957,0.9233,0.9176,
532.993,0.529,,,,,,,
533.63785,,,,,,,,1.085
533.64,,1.066,1.001,1.069,0.9932,0.9203,0.9145,
533.911,0.5288,,,,,,,
534.4887200000001,,,,,,,,1.08313
534.49,,1.065,0.9984,1.069,0.9909,0.9176,0.9113,
534.829,0.5288,,,,,,,
535.33959,,,,,,,,1.08043
535.34,,1.065,0.996,1.068,0.9886,0.9146,0.9082,
535.747,0.5288,,,,,,,
536.19,,1.064,0.9935,1.068,0.986,0.9114,0.905,
536.1904599999999,,,,,,,,1.07495
536.664,0.5289,,,,,,,
537.04,,1.063,0.991,1.068,0.9835,0.9083,0.9021,
537.04133,,,,,,,,1.06308
537.582,0.5289,,,,,,,
537.89,,1.063,0.9887,1.067,0.981,0.9055,0.8993,
537.8922,,,,,,,,1.04941
538.5,0.5289,,,,,,,
538.74,,1.063,0.9868,1.066,0.9788,0.903,0.8966,
538.74308,,,,,,,,1.0437
539.417,0.5289,,,,,,,
539.59,,1.063,0.9852,1.065,0.9767,0.9005,0.894,
539.59395,,,,,,,,1.04614
540.335,0.529,,,,,,,
540.44,,1.063,0.9838,1.064,0.9747,0.898,0.8913,
540.44482,,,,,,,,1.04762
541.253,0.5291,,,,,,,
541.29569,,,,,,,,1.04425
541.3,,1.064,0.9823,1.063,0.9728,0.8954,0.8888,
542.1465599999999,,,,,,,,1.0414
542.15,,1.064,0.9808,1.063,0.9709,0.8928,0.8861,
542.17,0.5291,,,,,,,
542.99743,,,,,,,,1.04123
543.0,,1.064,0.979,1.063,0.9691,0.8902,0.8835,
543.088,0.5291,,,,,,,
543.84831,,,,,,,,1.03771
543.85,,1.063,0.9771,1.063,0.9672,0.8874,0.8807,
544.006,0.5291,,,,,,,
544.69918,,,,,,,,1.02904
544.7,,1.063,0.975,1.062,0.9651,0.8846,0.8779,
544.924,0.5292,,,,,,,
545.55,,1.061,0.9729,1.061,0.963,0.8819,0.8752,
545.55005,,,,,,,,1.0231
545.841,0.5291,,,,,,,
546.4,,1.06,0.9709,1.06,0.961,0.8795,0.8726,
546.40092,,,,,,,,1.02341
546.759,0.529,,,,,,,
547.25,,1.059,0.9691,1.059,0.9591,0.8774,0.8702,
547.25179,,,,,,,,1.02408
547.677,0.5289,,,,,,,
548.1,,1.058,0.9675,1.058,0.9572,0.8755,0.8679,
548.10266,,,,,,,,1.0209
548.594,0.5288,,,,,,,
548.95,,1.058,0.9658,1.057,0.9552,0.8736,0.8655,
548.9535400000001,,,,,,,,1.01637
549.512,0.5287,,,,,,,
549.8,,1.058,0.9642,1.055,0.9531,0.8716,0.8631,
549.80441,,,,,,,,1.0128700000000002
550.43,0.5286,,,,,,,
550.65528,,,,,,,,1.00786
550.66,,1.058,0.9624,1.054,0.951,0.8696,0.8605,
551.348,0.5285,,,,,,,
551.50615,,,,,,,,1.00063
551.51,,1.059,0.9608,1.053,0.949,0.8675,0.8579,
552.265,0.5284,,,,,,,
552.35702,,,,,,,,0.99549
552.36,,1.058,0.9592,1.052,0.947,0.8653,0.8554,
553.183,0.5284,,,,,,,
553.20789,,,,,,,,0.99563
553.21,,1.058,0.9577,1.052,0.9449,0.863,0.853,
554.05876,,,,,,,,0.99813
554.06,,1.057,0.9563,1.051,0.943,0.8609,0.8508,
554.101,0.5284,,,,,,,
554.9096400000001,,,,,,,,0.99701
554.91,,1.056,0.955,1.05,0.9412,0.8589,0.8487,
555.018,0.5285,,,,,,,
555.76,,1.055,0.9537,1.049,0.9397,0.8573,0.8467,
555.76051,,,,,,,,0.99165
555.936,0.5284,,,,,,,
556.61,,1.055,0.9523,1.048,0.9382,0.8557,0.8447,
556.6113799999999,,,,,,,,0.98646
556.854,0.5283,,,,,,,
557.46,,1.055,0.9509,1.047,0.9367,0.8543,0.8427,
557.46225,,,,,,,,0.98262
557.771,0.5281,,,,,,,
558.31,,1.055,0.9494,1.046,0.9351,0.8527,0.8405,
558.31312,,,,,,,,0.97886
558.689,0.528,,,,,,,
559.16,,1.055,0.9479,1.045,0.9334,0.851,0.8383,
559.16399,,,,,,,,0.97497
559.607,0.5278,,,,,,,
560.01,,1.055,0.9464,1.044,0.9316,0.8493,0.8361,
560.01487,,,,,,,,0.97148
560.525,0.5276,,,,,,,
560.8657400000001,,,,,,,,0.96904
560.87,,1.054,0.9449,1.042,0.9299,0.8477,0.8341,
561.442,0.5275,,,,,,,
561.71661,,,,,,,,0.96815
561.72,,1.054,0.9434,1.04,0.9281,0.8462,0.8321,
562.36,0.5275,,,,,,,
562.5674799999999,,,,,,,,0.96887
562.57,,1.054,0.942,1.038,0.9263,0.8449,0.8303,
563.278,0.5274,,,,,,,
563.41835,,,,,,,,0.96943
563.42,,1.054,0.9406,1.036,0.9247,0.8437,0.8284,
564.195,0.5274,,,,,,,
564.26922,,,,,,,,0.96619
564.27,,1.054,0.9393,1.035,0.9232,0.8425,0.8266,
565.113,0.5273,,,,,,,
565.12,,1.054,0.938,1.033,0.9217,0.8415,0.8247,
565.1201,,,,,,,,0.96028
565.97,,1.054,0.9366,1.032,0.9201,0.8404,0.8229,
565.97097,,,,,,,,0.95486
566.031,0.5271,,,,,,,
566.82,,1.054,0.9352,1.031,0.9183,0.8392,0.8212,
566.8218400000001,,,,,,,,0.95098
566.949,0.527,,,,,,,
567.67,,1.053,0.9338,1.029,0.9165,0.8379,0.8194,
567.6727099999999,,,,,,,,0.94828
567.866,0.5269,,,,,,,
568.52,,1.053,0.9325,1.028,0.9147,0.8366,0.8178,
568.52358,,,,,,,,0.94593
568.784,0.5268,,,,,,,
569.37,,1.052,0.9311,1.026,0.9129,0.8353,0.8163,
569.37445,,,,,,,,0.94266
569.702,0.5268,,,,,,,
570.22533,,,,,,,,0.93725
570.23,,1.052,0.9299,1.025,0.9113,0.8342,0.8148,
570.619,0.5267,,,,,,,
571.0762,,,,,,,,0.93123
571.08,,1.052,0.9286,1.023,0.9097,0.8331,0.8133,
571.537,0.5266,,,,,,,
571.9270700000001,,,,,,,,0.92706
571.93,,1.052,0.9275,1.022,0.9081,0.8321,0.8118,
572.455,0.5263,,,,,,,
572.7779400000001,,,,,,,,0.92556
572.78,,1.052,0.9265,1.02,0.9066,0.8315,0.8103,
573.373,0.5261,,,,,,,
573.6288099999999,,,,,,,,0.92557
573.63,,1.052,0.9255,1.019,0.905,0.8309,0.8088,
574.29,0.5257,,,,,,,
574.47968,,,,,,,,0.92478
574.48,,1.053,0.9244,1.017,0.9033,0.8303,0.8073,
575.208,0.5254,,,,,,,
575.33,,1.053,0.9232,1.016,0.9015,0.8295,0.8057,
575.33055,,,,,,,,0.92241
576.126,0.525,,,,,,,
576.18,,1.053,0.9219,1.014,0.8997,0.8288,0.8043,
576.18143,,,,,,,,0.91905
577.03,,1.054,0.9205,1.013,0.8978,0.828,0.8029,
577.0323,,,,,,,,0.91508
577.043,0.5247,,,,,,,
577.88,,1.053,0.919,1.011,0.8961,0.8272,0.8015,
577.8831700000001,,,,,,,,0.9111
577.961,0.5245,,,,,,,
578.73,,1.053,0.9175,1.009,0.8943,0.8263,0.8001,
578.73404,,,,,,,,0.90765
578.879,0.5243,,,,,,,
579.58,,1.053,0.9159,1.008,0.8926,0.8256,0.7987,
579.5849099999999,,,,,,,,0.90486
579.796,0.5241,,,,,,,
580.43578,,,,,,,,0.90223
580.44,,1.053,0.9144,1.006,0.8909,0.825,0.7974,
580.714,0.5239,,,,,,,
581.28666,,,,,,,,0.89974
581.29,,1.054,0.913,1.005,0.8893,0.8246,0.7961,
581.632,0.5236,,,,,,,
582.13753,,,,,,,,0.8979
582.14,,1.054,0.9117,1.003,0.8876,0.8242,0.7948,
582.55,0.5233,,,,,,,
582.9884,,,,,,,,0.8966200000000001
582.99,,1.054,0.9105,1.002,0.8859,0.8238,0.7935,
583.467,0.5229,,,,,,,
583.83927,,,,,,,,0.89518
583.84,,1.054,0.9092,1.001,0.8841,0.8233,0.7923,
584.385,0.5225,,,,,,,
584.69,,1.055,0.9079,0.9994,0.8823,0.8228,0.791,
584.69014,,,,,,,,0.89245
585.303,0.5221,,,,,,,
585.54,,1.055,0.9066,0.9984,0.8804,0.8222,0.7897,
585.5410099999999,,,,,,,,0.88905
586.22,0.5217,,,,,,,
586.39,,1.056,0.9054,0.9973,0.8786,0.8216,0.7883,
586.39189,,,,,,,,0.8856
587.138,0.5213,,,,,,,
587.24,,1.057,0.9042,0.9962,0.8767,0.8211,0.787,
587.24276,,,,,,,,0.8822200000000001
588.056,0.5209,,,,,,,
588.09,,1.059,0.9029,0.995,0.875,0.8206,0.7858,
588.09363,,,,,,,,0.8788799999999999
588.94,,1.06,0.9016,0.9937,0.8734,0.8202,0.7846,
588.9445,,,,,,,,0.87575
588.974,0.5205,,,,,,,
589.79537,,,,,,,,0.8731
589.8,,1.061,0.9004,0.9923,0.8718,0.8199,0.7836,
589.891,0.5202,,,,,,,
590.64624,,,,,,,,0.8710100000000001
590.65,,1.062,0.8993,0.9909,0.8704,0.8197,0.7827,
590.809,0.5199,,,,,,,
591.49712,,,,,,,,0.8693200000000001
591.5,,1.063,0.8984,0.9896,0.869,0.8195,0.7819,
591.727,0.5196,,,,,,,
592.34799,,,,,,,,0.8676799999999999
592.35,,1.064,0.8975,0.9885,0.8676,0.8194,0.781,
592.644,0.5193,,,,,,,
593.19886,,,,,,,,0.8655200000000001
593.2,,1.064,0.8965,0.9875,0.8661,0.8193,0.7801,
593.562,0.5191,,,,,,,
594.04973,,,,,,,,0.8625700000000001
594.05,,1.065,0.8957,0.9866,0.8646,0.8192,0.7792,
594.48,0.5188,,,,,,,
594.9,,1.067,0.8947,0.9857,0.8629,0.8192,0.7783,
594.9006,,,,,,,,0.8589700000000001
595.397,0.5186,,,,,,,
595.75,,1.068,0.8938,0.9848,0.8611,0.8191,0.7773,
595.75147,,,,,,,,0.85506
596.315,0.5183,,,,,,,
596.6,,1.069,0.8928,0.9841,0.8594,0.8192,0.7764,
596.60235,,,,,,,,0.8512700000000001
597.233,0.5181,,,,,,,
597.45,,1.071,0.8919,0.9835,0.8578,0.8193,0.7755,
597.45322,,,,,,,,0.8479
598.151,0.5179,,,,,,,
598.3,,1.072,0.8912,0.9832,0.8563,0.8194,0.7747,
598.3040900000001,,,,,,,,0.84515
599.068,0.5178,,,,,,,
599.15,,1.074,0.8906,0.983,0.855,0.8197,0.7741,
599.15496,,,,,,,,0.8431
599.986,0.5176,,,,,,,
600.00583,,,,,,,,0.84159
600.01,,1.076,0.8901,0.983,0.8539,0.8201,0.7736,
600.8567,,,,,,,,0.8398700000000001
600.86,,1.078,0.8897,0.983,0.8528,0.8205,0.7732,
600.904,0.5176,,,,,,,
601.70757,,,,,,,,0.83811
601.71,,1.08,0.8893,0.983,0.8518,0.821,0.7729,
601.821,0.5175,,,,,,,
602.55845,,,,,,,,0.8369
602.56,,1.082,0.8888,0.9828,0.8508,0.8215,0.7725,
602.739,0.5175,,,,,,,
603.40932,,,,,,,,0.8362799999999999
603.41,,1.084,0.8883,0.9826,0.8497,0.822,0.7722,
603.657,0.5176,,,,,,,
604.26,,1.087,0.8878,0.9824,0.8487,0.8227,0.7718,
604.2601900000001,,,,,,,,0.83494
604.575,0.5177,,,,,,,
605.11,,1.089,0.8873,0.9822,0.8477,0.8235,0.7715,
605.11106,,,,,,,,0.83189
605.492,0.5178,,,,,,,
605.96,,1.092,0.887,0.9823,0.8469,0.8244,0.7713,
605.9619299999999,,,,,,,,0.8284100000000001
606.41,0.518,,,,,,,
606.81,,1.094,0.8867,0.9825,0.8461,0.8255,0.7713,
606.8128,,,,,,,,0.8255899999999999
607.328,0.5183,,,,,,,
607.66,,1.097,0.8865,0.983,0.8454,0.8266,0.7713,
607.66368,,,,,,,,0.82431
608.245,0.5186,,,,,,,
608.51,,1.1,0.8863,0.9836,0.8448,0.8278,0.7715,
608.51455,,,,,,,,0.8237399999999999
609.163,0.519,,,,,,,
609.36542,,,,,,,,0.82306
609.37,,1.102,0.8861,0.9842,0.8442,0.8291,0.7717,
610.081,0.5195,,,,,,,
610.2162900000001,,,,,,,,0.8218200000000001
610.22,,1.105,0.886,0.9849,0.8438,0.8304,0.7721,
610.999,0.52,,,,,,,
611.06716,,,,,,,,0.82006
611.07,,1.108,0.8861,0.9856,0.8435,0.8319,0.7725,
611.916,0.5206,,,,,,,
611.9180299999999,,,,,,,,0.8186100000000001
611.92,,1.111,0.8861,0.9862,0.8433,0.8335,0.7729,
612.76891,,,,,,,,0.81742
612.77,,1.114,0.8863,0.9869,0.8433,0.8352,0.7735,
612.834,0.5212,,,,,,,
613.61978,,,,,,,,0.8163699999999999
613.62,,1.117,0.8865,0.9876,0.8433,0.8371,0.7741,
613.752,0.5218,,,,,,,
614.47,,1.12,0.8868,0.9885,0.8434,0.8391,0.7749,
614.47065,,,,,,,,0.81523
614.669,0.5225,,,,,,,
615.32,,1.124,0.8871,0.9896,0.8435,0.8412,0.7757,
615.32152,,,,,,,,0.8143699999999999
615.587,0.5233,,,,,,,
616.17,,1.128,0.8874,0.991,0.8437,0.8432,0.7765,
616.1723900000001,,,,,,,,0.81371
616.505,0.5241,,,,,,,
617.02,,1.132,0.8877,0.9925,0.844,0.8454,0.7774,
617.0232599999999,,,,,,,,0.8131
617.422,0.525,,,,,,,
617.87,,1.136,0.8881,0.9941,0.8444,0.8476,0.7783,
617.87414,,,,,,,,0.81224
618.34,0.526,,,,,,,
618.72501,,,,,,,,0.81137
618.73,,1.14,0.8884,0.9958,0.8448,0.8498,0.7793,
619.258,0.5269,,,,,,,
619.57588,,,,,,,,0.8105899999999999
619.58,,1.144,0.8888,0.9977,0.8453,0.8522,0.7803,
620.176,0.5279,,,,,,,
620.42675,,,,,,,,0.81001
620.43,,1.148,0.8891,0.9995,0.8458,0.8546,0.7813,
621.093,0.5289,,,,,,,
621.2776200000001,,,,,,,,0.8092
621.28,,1.152,0.8894,1.001,0.8463,0.857,0.7823,
622.011,0.5298,,,,,,,
622.12849,,,,,,,,0.80812
622.13,,1.157,0.8897,1.003,0.8469,0.8595,0.7834,
622.929,0.5308,,,,,,,
622.9793599999999,,,,,,,,0.80679
622.98,,1.161,0.89,1.005,0.8476,0.862,0.7846,
623.83,,1.165,0.8904,1.007,0.8484,0.8645,0.7858,
623.83024,,,,,,,,0.80576
623.846,0.5319,,,,,,,
624.68,,1.169,0.8907,1.008,0.8493,0.8669,0.7869,
624.68111,,,,,,,,0.80505
624.764,0.5329,,,,,,,
625.53,,1.173,0.8912,1.01,0.8502,0.8694,0.7881,
625.53198,,,,,,,,0.80462
625.682,0.534,,,,,,,
626.38,,1.176,0.8916,1.012,0.8511,0.8718,0.7891,
626.38285,,,,,,,,0.8042100000000001
626.6,0.535,,,,,,,
627.23,,1.18,0.892,1.014,0.8521,0.8741,0.79,
627.2337200000001,,,,,,,,0.8036800000000001
627.517,0.5359,,,,,,,
628.08,,1.184,0.8924,1.016,0.8529,0.8763,0.7908,
628.08459,,,,,,,,0.8031
628.435,0.5368,,,,,,,
628.93547,,,,,,,,0.8026
628.94,,1.187,0.8926,1.018,0.8537,0.8782,0.7915,
629.353,0.5378,,,,,,,
629.78634,,,,,,,,0.80256
629.79,,1.191,0.8927,1.021,0.8543,0.88,0.7921,
630.27,0.5388,,,,,,,
630.63721,,,,,,,,0.80277
630.64,,1.195,0.8928,1.023,0.855,0.8816,0.7926,
631.188,0.5398,,,,,,,
631.48808,,,,,,,,0.80302
631.49,,1.199,0.8929,1.026,0.8557,0.8832,0.7931,
632.106,0.5407,,,,,,,
632.33895,,,,,,,,0.8025899999999999
632.34,,1.203,0.893,1.028,0.8564,0.8847,0.7935,
633.023,0.5414,,,,,,,
633.18982,,,,,,,,0.80184
633.19,,1.206,0.8933,1.03,0.8571,0.8862,0.7939,
633.941,0.5421,,,,,,,
634.04,,1.209,0.8936,1.031,0.8579,0.8876,0.7943,
634.0407,,,,,,,,0.80099
634.859,0.5426,,,,,,,
634.89,,1.211,0.894,1.033,0.8587,0.8889,0.7945,
634.89157,,,,,,,,0.8004899999999999
635.74,,1.214,0.8944,1.034,0.8594,0.89,0.7947,
635.74244,,,,,,,,0.79977
635.777,0.543,,,,,,,
636.59,,1.216,0.8949,1.036,0.86,0.8909,0.7948,
636.59331,,,,,,,,0.79882
636.694,0.5434,,,,,,,
637.44,,1.218,0.8954,1.038,0.8605,0.8915,0.7947,
637.44418,,,,,,,,0.79777
637.612,0.5437,,,,,,,
638.29505,,,,,,,,0.79733
638.3,,1.22,0.8958,1.039,0.8608,0.8919,0.7945,
638.53,0.544,,,,,,,
639.14593,,,,,,,,0.7974399999999999
639.15,,1.223,0.8962,1.041,0.8612,0.8921,0.7942,
639.447,0.5444,,,,,,,
639.9968,,,,,,,,0.7979
640.0,,1.225,0.8966,1.043,0.8614,0.8921,0.7937,
640.365,0.5447,,,,,,,
640.84767,,,,,,,,0.7982100000000001
640.85,,1.227,0.8969,1.045,0.8616,0.8919,0.7929,
641.283,0.5449,,,,,,,
641.6985400000001,,,,,,,,0.79835
641.7,,1.228,0.8971,1.047,0.8617,0.8915,0.792,
642.201,0.545,,,,,,,
642.54941,,,,,,,,0.79833
642.55,,1.23,0.8973,1.049,0.8617,0.8909,0.7909,
643.118,0.5451,,,,,,,
643.4,,1.231,0.8975,1.05,0.8615,0.8901,0.7897,
643.40028,,,,,,,,0.7983399999999999
644.036,0.5452,,,,,,,
644.25,,1.233,0.8979,1.052,0.8613,0.8891,0.7885,
644.25115,,,,,,,,0.79837
644.954,0.5451,,,,,,,
645.1,,1.234,0.8983,1.053,0.861,0.8879,0.7871,
645.10203,,,,,,,,0.79842
645.871,0.545,,,,,,,
645.95,,1.235,0.8989,1.055,0.8606,0.8866,0.7857,
645.9529,,,,,,,,0.79809
646.789,0.5449,,,,,,,
646.8,,1.235,0.8995,1.056,0.8601,0.8851,0.7843,
646.80377,,,,,,,,0.7973399999999999
647.65,,1.236,0.9002,1.057,0.8596,0.8834,0.7827,
647.6546400000001,,,,,,,,0.7961
647.707,0.5447,,,,,,,
648.50551,,,,,,,,0.7948
648.51,,1.236,0.9009,1.059,0.859,0.8816,0.781,
648.625,0.5445,,,,,,,
649.35638,,,,,,,,0.7936
649.36,,1.236,0.9015,1.06,0.8584,0.8796,0.7792,
649.542,0.5442,,,,,,,
650.20726,,,,,,,,0.79275
650.21,,1.236,0.9021,1.062,0.8577,0.8774,0.7774,
650.46,0.544,,,,,,,
651.05813,,,,,,,,0.79205
651.06,,1.236,0.9027,1.063,0.857,0.8752,0.7754,
651.378,0.5437,,,,,,,
651.909,,,,,,,,0.79135
651.91,,1.236,0.9034,1.065,0.8562,0.8728,0.7735,
652.295,0.5434,,,,,,,
652.75987,,,,,,,,0.7902600000000001
652.76,,1.236,0.9043,1.067,0.8555,0.8705,0.7714,
653.213,0.5431,,,,,,,
653.61,,1.236,0.9053,1.068,0.8547,0.868,0.7694,
653.6107400000001,,,,,,,,0.7891699999999999
654.131,0.5428,,,,,,,
654.46,,1.236,0.9064,1.07,0.854,0.8655,0.7673,
654.46161,,,,,,,,0.78822
655.048,0.5424,,,,,,,
655.31,,1.236,0.9076,1.072,0.8533,0.863,0.7652,
655.31249,,,,,,,,0.78783
655.966,0.5421,,,,,,,
656.16,,1.235,0.9089,1.074,0.8526,0.8604,0.7632,
656.16336,,,,,,,,0.78761
656.884,0.5419,,,,,,,
657.01,,1.235,0.9103,1.075,0.852,0.8577,0.7611,
657.01423,,,,,,,,0.78741
657.802,0.5417,,,,,,,
657.8651,,,,,,,,0.78713
657.87,,1.235,0.9117,1.077,0.8514,0.855,0.7591,
658.71597,,,,,,,,0.78689
658.719,0.5415,,,,,,,
658.72,,1.234,0.9132,1.079,0.8508,0.8523,0.7572,
659.5668400000001,,,,,,,,0.78681
659.57,,1.234,0.9147,1.081,0.8502,0.8496,0.7553,
659.637,0.5414,,,,,,,
660.41772,,,,,,,,0.7865300000000001
660.42,,1.233,0.9163,1.083,0.8497,0.8469,0.7534,
660.555,0.5412,,,,,,,
661.26859,,,,,,,,0.78604
661.27,,1.233,0.9179,1.085,0.8491,0.8442,0.7516,
661.472,0.5411,,,,,,,
662.11946,,,,,,,,0.7853
662.12,,1.233,0.9196,1.086,0.8486,0.8414,0.7497,
662.39,0.5409,,,,,,,
662.97,,1.232,0.9214,1.088,0.848,0.8386,0.7477,
662.97033,,,,,,,,0.7849
663.308,0.5408,,,,,,,
663.82,,1.232,0.9232,1.09,0.8474,0.8358,0.7458,
663.8212,,,,,,,,0.78495
664.226,0.5407,,,,,,,
664.67,,1.232,0.9251,1.092,0.8469,0.8331,0.7439,
664.67207,,,,,,,,0.78545
665.143,0.5407,,,,,,,
665.52,,1.232,0.927,1.094,0.8464,0.8304,0.7421,
665.52295,,,,,,,,0.78594
666.061,0.5408,,,,,,,
666.37,,1.232,0.9289,1.096,0.8459,0.8278,0.7402,
666.37382,,,,,,,,0.78609
666.979,0.5409,,,,,,,
667.22,,1.232,0.9309,1.097,0.8454,0.8252,0.7385,
667.22469,,,,,,,,0.78588
667.896,0.541,,,,,,,
668.07556,,,,,,,,0.7854800000000001
668.08,,1.232,0.9328,1.099,0.8451,0.8227,0.7368,
668.814,0.5412,,,,,,,
668.92643,,,,,,,,0.7851600000000001
668.93,,1.232,0.9348,1.101,0.8448,0.8203,0.7351,
669.732,0.5413,,,,,,,
669.7773,,,,,,,,0.78491
669.78,,1.232,0.9368,1.103,0.8446,0.8178,0.7334,
670.6281700000001,,,,,,,,0.78473
670.63,,1.232,0.9389,1.105,0.8444,0.8155,0.7318,
670.649,0.5415,,,,,,,
671.47905,,,,,,,,0.7844300000000001
671.48,,1.232,0.941,1.107,0.8443,0.8132,0.7302,
671.567,0.5418,,,,,,,
672.32992,,,,,,,,0.78413
672.33,,1.232,0.9432,1.11,0.8442,0.811,0.7287,
672.485,0.5421,,,,,,,
673.18,,1.232,0.9454,1.112,0.8442,0.8089,0.7272,
673.18079,,,,,,,,0.7839
673.403,0.5425,,,,,,,
674.03,,1.233,0.9476,1.114,0.8442,0.8069,0.7258,
674.03166,,,,,,,,0.78382
674.32,0.543,,,,,,,
674.88,,1.233,0.9499,1.117,0.8442,0.8049,0.7245,
674.88253,,,,,,,,0.78385
675.238,0.5435,,,,,,,
675.73,,1.234,0.9522,1.119,0.8442,0.8029,0.7233,
675.7334,,,,,,,,0.78377
676.156,0.5441,,,,,,,
676.58,,1.234,0.9546,1.122,0.8443,0.801,0.7221,
676.58428,,,,,,,,0.78362
677.073,0.5447,,,,,,,
677.43515,,,,,,,,0.78341
677.44,,1.235,0.9571,1.124,0.8444,0.7991,0.721,
677.991,0.5453,,,,,,,
678.28602,,,,,,,,0.7832399999999999
678.29,,1.235,0.9597,1.127,0.8445,0.7974,0.72,
678.909,0.5459,,,,,,,
679.13689,,,,,,,,0.7831199999999999
679.14,,1.236,0.9623,1.129,0.8448,0.7956,0.7189,
679.827,0.5466,,,,,,,
679.98776,,,,,,,,0.78309
679.99,,1.237,0.965,1.131,0.845,0.794,0.7179,
680.744,0.5473,,,,,,,
680.83863,,,,,,,,0.78322
680.84,,1.237,0.9676,1.133,0.8453,0.7923,0.7169,
681.662,0.5479,,,,,,,
681.6895099999999,,,,,,,,0.78357
681.69,,1.238,0.9701,1.135,0.8456,0.7907,0.7159,
682.54,,1.239,0.9725,1.137,0.8458,0.789,0.7148,
682.54038,,,,,,,,0.78391
682.58,0.5485,,,,,,,
683.39,,1.239,0.9747,1.139,0.846,0.7874,0.7138,
683.39125,,,,,,,,0.78415
683.497,0.5491,,,,,,,
684.24,,1.24,0.9767,1.141,0.8462,0.7857,0.7127,
684.24212,,,,,,,,0.78403
684.415,0.5495,,,,,,,
685.09,,1.241,0.9787,1.143,0.8463,0.784,0.7116,
685.09299,,,,,,,,0.78364
685.333,0.5499,,,,,,,
685.94,,1.241,0.9805,1.145,0.8464,0.7824,0.7105,
685.94386,,,,,,,,0.78301
686.251,0.5502,,,,,,,
686.79,,1.241,0.9823,1.147,0.8464,0.7808,0.7094,
686.79474,,,,,,,,0.78242
687.168,0.5505,,,,,,,
687.6456099999999,,,,,,,,0.78194
687.65,,1.241,0.984,1.148,0.8464,0.7792,0.7082,
688.086,0.5507,,,,,,,
688.49648,,,,,,,,0.78168
688.5,,1.241,0.9856,1.149,0.8463,0.7776,0.707,
689.004,0.5509,,,,,,,
689.34735,,,,,,,,0.7815
689.35,,1.241,0.9871,1.15,0.8462,0.776,0.7058,
689.921,0.5512,,,,,,,
690.19822,,,,,,,,0.7812
690.2,,1.241,0.9885,1.151,0.8461,0.7744,0.7046,
690.839,0.5514,,,,,,,
691.0490900000001,,,,,,,,0.78067
691.05,,1.241,0.9898,1.152,0.8459,0.7729,0.7034,
691.757,0.5517,,,,,,,
691.89996,,,,,,,,0.77983
691.9,,1.241,0.9912,1.154,0.8458,0.7714,0.7022,
692.674,0.552,,,,,,,
692.75,,1.241,0.9925,1.155,0.8457,0.7699,0.7011,
692.75084,,,,,,,,0.77877
693.592,0.5523,,,,,,,
693.6,,1.241,0.9939,1.156,0.8456,0.7685,0.7,
693.6017099999999,,,,,,,,0.77753
694.45,,1.241,0.9952,1.157,0.8455,0.7671,0.6989,
694.45258,,,,,,,,0.7762600000000001
694.51,0.5526,,,,,,,
695.3,,1.242,0.9966,1.158,0.8455,0.7656,0.6979,
695.30345,,,,,,,,0.77503
695.428,0.5528,,,,,,,
696.15,,1.242,0.9979,1.16,0.8454,0.7642,0.6968,
696.15432,,,,,,,,0.7740100000000001
696.345,0.5531,,,,,,,
697.0051900000001,,,,,,,,0.77312
697.01,,1.242,0.9992,1.161,0.8452,0.7628,0.6957,
697.263,0.5532,,,,,,,
697.85607,,,,,,,,0.77235
697.86,,1.242,1.0,1.162,0.8451,0.7615,0.6946,
698.181,0.5534,,,,,,,
698.70694,,,,,,,,0.77162
698.71,,1.242,1.002,1.163,0.8449,0.7602,0.6935,
699.098,0.5536,,,,,,,
699.55781,,,,,,,,0.77093
699.56,,1.242,1.003,1.164,0.8447,0.7589,0.6923,
700.016,0.5538,,,,,,,
700.40868,,,,,,,,0.7704
700.41,,1.242,1.004,1.164,0.8445,0.7576,0.6912,
700.934,0.5539,,,,,,,
701.25955,,,,,,,,0.76994
701.26,,1.242,1.005,1.165,0.8443,0.7563,0.69,
701.852,0.554,,,,,,,
702.11,,1.241,1.006,1.166,0.8442,0.755,0.6888,
702.11042,,,,,,,,0.76946
702.769,0.554,,,,,,,
702.96,,1.241,1.007,1.166,0.844,0.7537,0.6876,
702.9613,,,,,,,,0.76878
703.687,0.554,,,,,,,
703.81,,1.241,1.008,1.166,0.8439,0.7523,0.6865,
703.81217,,,,,,,,0.76774
704.605,0.554,,,,,,,
704.66,,1.241,1.008,1.167,0.8437,0.751,0.6853,
704.66304,,,,,,,,0.76647
705.51,,1.241,1.009,1.167,0.8435,0.7497,0.6842,
705.51391,,,,,,,,0.76499
705.522,0.554,,,,,,,
706.36,,1.24,1.01,1.168,0.8433,0.7484,0.6831,
706.36478,,,,,,,,0.76358
706.44,0.554,,,,,,,
707.21565,,,,,,,,0.76225
707.22,,1.24,1.011,1.168,0.8432,0.7472,0.6821,
707.358,0.5541,,,,,,,
708.06653,,,,,,,,0.7610899999999999
708.07,,1.24,1.012,1.169,0.843,0.746,0.6811,
708.275,0.5541,,,,,,,
708.9174,,,,,,,,0.76005
708.92,,1.24,1.012,1.17,0.8428,0.7448,0.6801,
709.193,0.5543,,,,,,,
709.76827,,,,,,,,0.7591
709.77,,1.241,1.013,1.17,0.8427,0.7437,0.6792,
710.111,0.5545,,,,,,,
710.61914,,,,,,,,0.75826
710.62,,1.241,1.014,1.171,0.8426,0.7426,0.6783,
711.029,0.5547,,,,,,,
711.47,,1.241,1.015,1.172,0.8425,0.7415,0.6773,
711.47001,,,,,,,,0.75754
711.946,0.555,,,,,,,
712.32,,1.241,1.016,1.173,0.8423,0.7404,0.6764,
712.32088,,,,,,,,0.7568699999999999
712.864,0.5554,,,,,,,
713.17,,1.241,1.017,1.174,0.8422,0.7394,0.6755,
713.17175,,,,,,,,0.75621
713.782,0.5558,,,,,,,
714.02,,1.242,1.018,1.175,0.8421,0.7384,0.6746,
714.0226299999999,,,,,,,,0.75546
714.699,0.5562,,,,,,,
714.87,,1.242,1.02,1.176,0.842,0.7374,0.6738,
714.8735,,,,,,,,0.75458
715.617,0.5568,,,,,,,
715.72,,1.243,1.021,1.177,0.842,0.7364,0.673,
715.72437,,,,,,,,0.75369
716.535,0.5574,,,,,,,
716.57524,,,,,,,,0.75278
716.58,,1.244,1.023,1.179,0.8421,0.7355,0.6722,
717.42611,,,,,,,,0.75188
717.43,,1.244,1.024,1.18,0.8423,0.7346,0.6715,
717.453,0.558,,,,,,,
718.27698,,,,,,,,0.7510399999999999
718.28,,1.245,1.026,1.181,0.8426,0.7338,0.6709,
718.37,0.5588,,,,,,,
719.1278599999999,,,,,,,,0.75029
719.13,,1.246,1.028,1.183,0.8429,0.7331,0.6703,
719.288,0.5597,,,,,,,
719.9787299999999,,,,,,,,0.74976
719.98,,1.247,1.029,1.185,0.8432,0.7324,0.6698,
720.206,0.5606,,,,,,,
720.8296,,,,,,,,0.74967
720.83,,1.249,1.031,1.187,0.8437,0.7318,0.6693,
721.123,0.5615,,,,,,,
721.68,,1.25,1.033,1.189,0.8441,0.7313,0.6689,
721.68047,,,,,,,,0.7498100000000001
722.041,0.5626,,,,,,,
722.53,,1.252,1.036,1.192,0.8446,0.7309,0.6686,
722.53134,,,,,,,,0.75015
722.959,0.5636,,,,,,,
723.38,,1.253,1.038,1.194,0.8452,0.7304,0.6684,
723.38221,,,,,,,,0.7503
723.877,0.5648,,,,,,,
724.23,,1.255,1.041,1.196,0.8459,0.73,0.6682,
724.2330900000001,,,,,,,,0.75005
724.794,0.566,,,,,,,
725.08,,1.257,1.043,1.199,0.8466,0.7296,0.668,
725.0839599999999,,,,,,,,0.74971
725.712,0.5674,,,,,,,
725.93,,1.259,1.046,1.201,0.8473,0.7292,0.6679,
725.93483,,,,,,,,0.7492800000000001
726.63,0.5688,,,,,,,
726.7857,,,,,,,,0.7492
726.79,,1.261,1.049,1.204,0.8481,0.7288,0.6679,
727.547,0.5703,,,,,,,
727.63657,,,,,,,,0.74951
727.64,,1.263,1.052,1.206,0.849,0.7285,0.6679,
728.465,0.5719,,,,,,,
728.48744,,,,,,,,0.75003
728.49,,1.265,1.055,1.209,0.8499,0.7282,0.6679,
729.3383200000001,,,,,,,,0.75073
729.34,,1.268,1.058,1.212,0.8509,0.7279,0.6679,
729.383,0.5735,,,,,,,
730.18919,,,,,,,,0.75139
730.19,,1.27,1.061,1.215,0.8519,0.7277,0.668,
730.3,0.5753,,,,,,,
731.04,,1.272,1.064,1.218,0.853,0.7276,0.6681,
731.0400599999999,,,,,,,,0.75202
731.218,0.577,,,,,,,
731.89,,1.275,1.067,1.222,0.8542,0.7274,0.6683,
731.89093,,,,,,,,0.75272
732.136,0.5788,,,,,,,
732.74,,1.278,1.071,1.225,0.8554,0.7274,0.6687,
732.7418,,,,,,,,0.7535
733.054,0.5807,,,,,,,
733.59,,1.28,1.075,1.228,0.8567,0.7275,0.6691,
733.59267,,,,,,,,0.75443
733.971,0.5826,,,,,,,
734.44,,1.283,1.078,1.232,0.858,0.7276,0.6696,
734.44355,,,,,,,,0.75547
734.889,0.5847,,,,,,,
735.29,,1.286,1.082,1.236,0.8594,0.7279,0.6703,
735.2944200000001,,,,,,,,0.7565
735.807,0.5868,,,,,,,
736.14529,,,,,,,,0.75757
736.15,,1.289,1.086,1.239,0.8608,0.7282,0.6709,
736.724,0.5891,,,,,,,
736.9961599999999,,,,,,,,0.75872
737.0,,1.292,1.091,1.243,0.8623,0.7287,0.6717,
737.642,0.5914,,,,,,,
737.84703,,,,,,,,0.75998
737.85,,1.296,1.095,1.248,0.8639,0.7292,0.6725,
738.56,0.5939,,,,,,,
738.6979,,,,,,,,0.76151
738.7,,1.299,1.1,1.252,0.8656,0.7298,0.6733,
739.478,0.5964,,,,,,,
739.54877,,,,,,,,0.76322
739.55,,1.303,1.104,1.256,0.8674,0.7304,0.6742,
740.395,0.5991,,,,,,,
740.39965,,,,,,,,0.76493
740.4,,1.306,1.109,1.261,0.8694,0.731,0.6753,
741.25,,1.31,1.115,1.266,0.8716,0.7317,0.6764,
741.25052,,,,,,,,0.76666
741.313,0.6018,,,,,,,
742.1,,1.314,1.12,1.27,0.8737,0.7324,0.6775,
742.10139,,,,,,,,0.76828
742.231,0.6047,,,,,,,
742.95,,1.319,1.125,1.275,0.8759,0.7331,0.6787,
742.9522599999999,,,,,,,,0.7699
743.148,0.6075,,,,,,,
743.8,,1.323,1.13,1.28,0.8779,0.7338,0.6799,
743.80313,,,,,,,,0.77168
744.066,0.6104,,,,,,,
744.65,,1.327,1.136,1.285,0.8799,0.7345,0.681,
744.654,,,,,,,,0.77359
744.984,0.6132,,,,,,,
745.5,,1.331,1.141,1.289,0.8817,0.7352,0.6822,
745.50488,,,,,,,,0.77569
745.901,0.6159,,,,,,,
746.35575,,,,,,,,0.77788
746.36,,1.335,1.146,1.294,0.8834,0.7359,0.6833,
746.819,0.6185,,,,,,,
747.20662,,,,,,,,0.7799699999999999
747.21,,1.339,1.151,1.299,0.885,0.7365,0.6843,
747.737,0.621,,,,,,,
748.05749,,,,,,,,0.78195
748.06,,1.343,1.156,1.303,0.8865,0.737,0.6852,
748.655,0.6234,,,,,,,
748.90836,,,,,,,,0.78369
748.91,,1.347,1.16,1.307,0.888,0.7374,0.6861,
749.572,0.6257,,,,,,,
749.75923,,,,,,,,0.78523
749.76,,1.35,1.165,1.311,0.8895,0.7377,0.6868,
750.49,0.6279,,,,,,,
750.61,,1.353,1.169,1.315,0.8909,0.738,0.6875,
750.61011,,,,,,,,0.78667
751.408,0.63,,,,,,,
751.46,,1.356,1.173,1.319,0.8924,0.7383,0.6882,
751.46098,,,,,,,,0.78799
752.31,,1.359,1.177,1.322,0.8937,0.7385,0.6888,
752.31185,,,,,,,,0.78925
752.325,0.632,,,,,,,
753.16,,1.362,1.181,1.325,0.8951,0.7387,0.6893,
753.16272,,,,,,,,0.79042
753.243,0.6339,,,,,,,
754.01,,1.364,1.185,1.328,0.8964,0.739,0.6898,
754.01359,,,,,,,,0.7914
754.161,0.6358,,,,,,,
754.86,,1.367,1.189,1.331,0.8976,0.7393,0.6903,
754.86446,,,,,,,,0.79222
755.079,0.6376,,,,,,,
755.7153400000001,,,,,,,,0.79298
755.72,,1.37,1.193,1.334,0.8989,0.7396,0.6908,
755.996,0.6395,,,,,,,
756.56621,,,,,,,,0.7937
756.57,,1.372,1.197,1.337,0.9002,0.74,0.6914,
756.914,0.6416,,,,,,,
757.4170799999999,,,,,,,,0.7945399999999999
757.42,,1.375,1.201,1.34,0.9015,0.7405,0.6921,
757.832,0.6437,,,,,,,
758.26795,,,,,,,,0.79551
758.27,,1.378,1.206,1.343,0.9029,0.7411,0.6929,
758.749,0.646,,,,,,,
759.11882,,,,,,,,0.79657
759.12,,1.381,1.21,1.346,0.9045,0.7417,0.6938,
759.667,0.6484,,,,,,,
759.96969,,,,,,,,0.79773
759.97,,1.384,1.215,1.35,0.906,0.7423,0.6948,
760.585,0.6507,,,,,,,
760.82,,1.387,1.22,1.353,0.9076,0.7429,0.6959,
760.82056,,,,,,,,0.79894
761.503,0.653,,,,,,,
761.67,,1.39,1.224,1.356,0.9091,0.7434,0.6968,
761.6714400000001,,,,,,,,0.80023
762.42,0.6552,,,,,,,
762.52,,1.393,1.229,1.36,0.9106,0.7439,0.6977,
762.52231,,,,,,,,0.80147
763.338,0.6572,,,,,,,
763.37,,1.396,1.233,1.363,0.9118,0.7442,0.6984,
763.3731799999999,,,,,,,,0.80267
764.22,,1.399,1.237,1.365,0.9129,0.7444,0.6989,
764.22405,,,,,,,,0.80365
764.256,0.6589,,,,,,,
765.07,,1.401,1.24,1.368,0.9137,0.7445,0.6992,
765.07492,,,,,,,,0.8043100000000001
765.173,0.6605,,,,,,,
765.92579,,,,,,,,0.8047
765.93,,1.403,1.243,1.369,0.9143,0.7444,0.6992,
766.091,0.6618,,,,,,,
766.77667,,,,,,,,0.80484
766.78,,1.404,1.246,1.371,0.9146,0.7442,0.6989,
767.009,0.6627,,,,,,,
767.6275400000001,,,,,,,,0.8046300000000001
767.63,,1.405,1.248,1.371,0.9147,0.7437,0.6984,
767.926,0.6633,,,,,,,
768.4784099999999,,,,,,,,0.80396
768.48,,1.405,1.25,1.372,0.9144,0.7429,0.6977,
768.844,0.6634,,,,,,,
769.3292799999999,,,,,,,,0.80282
769.33,,1.404,1.251,1.371,0.9139,0.742,0.6967,
769.762,0.6631,,,,,,,
770.18,,1.403,1.251,1.37,0.913,0.7408,0.6956,
770.18015,,,,,,,,0.80097
770.68,0.6624,,,,,,,
771.03,,1.401,1.251,1.368,0.9119,0.7395,0.6942,
771.03102,,,,,,,,0.79852
771.597,0.6612,,,,,,,
771.88,,1.398,1.25,1.365,0.9106,0.738,0.6927,
771.8819,,,,,,,,0.79582
772.515,0.6598,,,,,,,
772.73,,1.395,1.248,1.361,0.909,0.7363,0.691,
772.7327700000001,,,,,,,,0.79286
773.433,0.6581,,,,,,,
773.58,,1.392,1.246,1.357,0.9071,0.7345,0.6891,
773.5836400000001,,,,,,,,0.78996
774.35,0.6562,,,,,,,
774.43,,1.388,1.244,1.353,0.905,0.7325,0.6869,
774.4345099999999,,,,,,,,0.78718
775.268,0.6541,,,,,,,
775.28538,,,,,,,,0.7843100000000001
775.29,,1.385,1.242,1.348,0.9027,0.7303,0.6846,
776.13625,,,,,,,,0.78133
776.14,,1.381,1.239,1.343,0.9002,0.7281,0.682,
776.186,0.652,,,,,,,
776.98713,,,,,,,,0.77818
776.99,,1.376,1.236,1.338,0.8975,0.7258,0.6793,
777.104,0.6496,,,,,,,
777.838,,,,,,,,0.7748
777.84,,1.372,1.233,1.333,0.8947,0.7234,0.6766,
778.021,0.6472,,,,,,,
778.6888700000001,,,,,,,,0.77131
778.69,,1.368,1.229,1.328,0.8919,0.721,0.6738,
778.939,0.6447,,,,,,,
779.53974,,,,,,,,0.76782
779.54,,1.363,1.226,1.324,0.889,0.7186,0.6711,
779.857,0.6421,,,,,,,
780.39,,1.358,1.222,1.319,0.8862,0.7163,0.6685,
780.3906099999999,,,,,,,,0.7643
780.774,0.6395,,,,,,,
781.24,,1.354,1.218,1.314,0.8834,0.7139,0.666,
781.24148,,,,,,,,0.76076
781.692,0.6369,,,,,,,
782.09,,1.349,1.214,1.31,0.8806,0.7116,0.6636,
782.09235,,,,,,,,0.7572
782.61,0.6343,,,,,,,
782.94,,1.345,1.21,1.305,0.8779,0.7093,0.6611,
782.94323,,,,,,,,0.75354
783.528,0.6318,,,,,,,
783.79,,1.34,1.206,1.3,0.8752,0.707,0.6586,
783.7941,,,,,,,,0.7497699999999999
784.445,0.6293,,,,,,,
784.64,,1.335,1.202,1.295,0.8726,0.7047,0.656,
784.6449700000001,,,,,,,,0.746
785.363,0.6268,,,,,,,
785.49584,,,,,,,,0.74222
785.5,,1.331,1.198,1.29,0.8699,0.7024,0.6534,
786.281,0.6244,,,,,,,
786.3467099999999,,,,,,,,0.73851
786.35,,1.326,1.194,1.285,0.8672,0.7002,0.6507,
787.19758,,,,,,,,0.7349600000000001
787.198,0.6219,,,,,,,
787.2,,1.322,1.19,1.28,0.8644,0.6979,0.648,
788.04846,,,,,,,,0.7315
788.05,,1.317,1.187,1.276,0.8617,0.6957,0.6453,
788.116,0.6195,,,,,,,
788.89933,,,,,,,,0.72811
788.9,,1.312,1.183,1.271,0.8589,0.6935,0.6427,
789.034,0.617,,,,,,,
789.75,,1.307,1.179,1.266,0.8562,0.6912,0.6401,
789.7502,,,,,,,,0.72478
789.951,0.6145,,,,,,,
790.6,,1.303,1.175,1.261,0.8534,0.6889,0.6376,
790.60107,,,,,,,,0.72142
790.869,0.6119,,,,,,,
791.45,,1.298,1.171,1.256,0.8506,0.6866,0.6351,
791.45194,,,,,,,,0.7180300000000001
791.787,0.6093,,,,,,,
792.3,,1.293,1.167,1.251,0.8478,0.6843,0.6326,
792.3028099999999,,,,,,,,0.7146600000000001
792.705,0.6066,,,,,,,
793.15,,1.288,1.163,1.246,0.8449,0.6819,0.6302,
793.15369,,,,,,,,0.71131
793.622,0.6038,,,,,,,
794.0,,1.284,1.159,1.241,0.842,0.6795,0.6277,
794.00456,,,,,,,,0.70803
794.54,0.6011,,,,,,,
794.85543,,,,,,,,0.70486
794.86,,1.279,1.155,1.236,0.8391,0.6771,0.6252,
795.458,0.5985,,,,,,,
795.7063,,,,,,,,0.70176
795.71,,1.274,1.151,1.231,0.8362,0.6747,0.6227,
796.375,0.5959,,,,,,,
796.55717,,,,,,,,0.69863
796.56,,1.269,1.146,1.226,0.8334,0.6722,0.6202,
797.293,0.5935,,,,,,,
797.40804,,,,,,,,0.6954899999999999
797.41,,1.265,1.142,1.221,0.8306,0.6698,0.6176,
798.211,0.5912,,,,,,,
798.25892,,,,,,,,0.6923
798.26,,1.26,1.138,1.216,0.8279,0.6674,0.6151,
799.1097900000001,,,,,,,,0.68903
799.11,,1.256,1.134,1.211,0.8252,0.6651,0.6126,
799.129,0.5889,,,,,,,
799.96,,1.251,1.13,1.206,0.8226,0.6628,0.6102,
799.96066,,,,,,,,0.68582
800.046,0.5868,,,,,,,
800.81,,1.247,1.126,1.202,0.8201,0.6605,0.6077,
800.81153,,,,,,,,0.68274
800.964,0.5846,,,,,,,
801.66,,1.242,1.122,1.198,0.8175,0.6583,0.6054,
801.6624,,,,,,,,0.67974
801.882,0.5825,,,,,,,
802.51,,1.238,1.119,1.194,0.8149,0.6561,0.6031,
802.51327,,,,,,,,0.67686
802.799,0.5805,,,,,,,
803.36,,1.234,1.115,1.19,0.8124,0.654,0.6009,
803.36415,,,,,,,,0.67407
803.717,0.5785,,,,,,,
804.21502,,,,,,,,0.6713100000000001
804.22,,1.231,1.112,1.186,0.8099,0.652,0.5988,
804.635,0.5765,,,,,,,
805.0658900000001,,,,,,,,0.6685399999999999
805.07,,1.227,1.109,1.183,0.8075,0.65,0.5968,
805.552,0.5747,,,,,,,
805.91676,,,,,,,,0.66588
805.92,,1.224,1.105,1.18,0.8052,0.6482,0.5949,
806.47,0.5729,,,,,,,
806.7676299999999,,,,,,,,0.66338
806.77,,1.221,1.103,1.177,0.803,0.6464,0.5931,
807.388,0.5712,,,,,,,
807.6185,,,,,,,,0.66104
807.62,,1.218,1.1,1.174,0.801,0.6448,0.5914,
808.306,0.5697,,,,,,,
808.46937,,,,,,,,0.65893
808.47,,1.215,1.097,1.171,0.799,0.6432,0.5898,
809.223,0.5684,,,,,,,
809.32,,1.212,1.095,1.169,0.7973,0.6417,0.5882,
809.32025,,,,,,,,0.65704
810.141,0.5672,,,,,,,
810.17,,1.209,1.093,1.166,0.7957,0.6403,0.5868,
810.17112,,,,,,,,0.6552399999999999
811.02,,1.207,1.091,1.164,0.7942,0.6389,0.5854,
811.0219900000001,,,,,,,,0.65352
811.059,0.5661,,,,,,,
811.87,,1.205,1.09,1.162,0.7928,0.6375,0.5841,
811.87286,,,,,,,,0.65184
811.976,0.5653,,,,,,,
812.72,,1.202,1.088,1.16,0.7915,0.6361,0.5828,
812.7237299999999,,,,,,,,0.6501399999999999
812.894,0.5646,,,,,,,
813.57,,1.2,1.087,1.158,0.7903,0.6347,0.5815,
813.5746,,,,,,,,0.64847
813.812,0.564,,,,,,,
814.42548,,,,,,,,0.6469199999999999
814.43,,1.199,1.086,1.156,0.7892,0.6333,0.5802,
814.73,0.5636,,,,,,,
815.27635,,,,,,,,0.64546
815.28,,1.197,1.085,1.155,0.7882,0.6319,0.579,
815.647,0.5633,,,,,,,
816.12722,,,,,,,,0.6442
816.13,,1.196,1.085,1.154,0.7872,0.6305,0.5779,
816.565,0.5632,,,,,,,
816.9780900000001,,,,,,,,0.6432
816.98,,1.195,1.084,1.153,0.7864,0.6292,0.5768,
817.483,0.5633,,,,,,,
817.8289599999999,,,,,,,,0.64242
817.83,,1.195,1.084,1.153,0.7856,0.628,0.5758,
818.4,0.5635,,,,,,,
818.67983,,,,,,,,0.64184
818.68,,1.195,1.084,1.153,0.7849,0.627,0.575,
819.318,0.564,,,,,,,
819.53,,1.195,1.085,1.153,0.7843,0.6262,0.5743,
819.53071,,,,,,,,0.64147
820.236,0.5646,,,,,,,
820.38,,1.195,1.086,1.154,0.7839,0.6255,0.5737,
820.38158,,,,,,,,0.6412100000000001
821.154,0.5654,,,,,,,
821.23,,1.196,1.087,1.155,0.7836,0.6251,0.5733,
821.23245,,,,,,,,0.6410399999999999
822.071,0.5664,,,,,,,
822.08,,1.197,1.088,1.156,0.7835,0.6248,0.5731,
822.0833200000001,,,,,,,,0.64098
822.93,,1.198,1.089,1.157,0.7837,0.6247,0.5731,
822.9341900000001,,,,,,,,0.64102
822.989,0.5675,,,,,,,
823.7850599999999,,,,,,,,0.6411600000000001
823.79,,1.199,1.091,1.159,0.7841,0.6247,0.5732,
823.907,0.5688,,,,,,,
824.63594,,,,,,,,0.64149
824.64,,1.2,1.093,1.161,0.7847,0.6248,0.5735,
824.824,0.5701,,,,,,,
825.48681,,,,,,,,0.64199
825.49,,1.201,1.096,1.163,0.7853,0.625,0.5739,
825.742,0.5715,,,,,,,
826.33768,,,,,,,,0.64268
826.34,,1.203,1.098,1.165,0.7861,0.6252,0.5743,
826.66,0.573,,,,,,,
827.18855,,,,,,,,0.64357
827.19,,1.205,1.101,1.167,0.7868,0.6255,0.5748,
827.577,0.5745,,,,,,,
828.0394200000001,,,,,,,,0.64465
828.04,,1.206,1.104,1.169,0.7874,0.6257,0.5753,
828.495,0.576,,,,,,,
828.89,,1.208,1.107,1.171,0.788,0.626,0.5759,
828.89029,,,,,,,,0.64584
829.413,0.5776,,,,,,,
829.74,,1.21,1.11,1.174,0.7887,0.6262,0.5765,
829.7411599999999,,,,,,,,0.64715
830.331,0.5793,,,,,,,
830.59,,1.213,1.113,1.176,0.7893,0.6265,0.5772,
830.59204,,,,,,,,0.64856
831.248,0.5811,,,,,,,
831.44,,1.215,1.116,1.179,0.7901,0.6267,0.5779,
831.44291,,,,,,,,0.65003
832.166,0.583,,,,,,,
832.29,,1.217,1.119,1.182,0.791,0.627,0.5788,
832.29378,,,,,,,,0.65158
833.084,0.5849,,,,,,,
833.14,,1.22,1.123,1.185,0.792,0.6273,0.5796,
833.14465,,,,,,,,0.65322
833.99552,,,,,,,,0.65494
834.0,,1.223,1.126,1.188,0.7931,0.6276,0.5805,
834.001,0.587,,,,,,,
834.84639,,,,,,,,0.6568
834.85,,1.226,1.13,1.192,0.7943,0.6281,0.5814,
834.919,0.5891,,,,,,,
835.69727,,,,,,,,0.65885
835.7,,1.229,1.133,1.196,0.7956,0.6286,0.5824,
835.837,0.5913,,,,,,,
836.54814,,,,,,,,0.6610699999999999
836.55,,1.232,1.137,1.2,0.7971,0.6293,0.5836,
836.755,0.5936,,,,,,,
837.39901,,,,,,,,0.66352
837.4,,1.235,1.141,1.204,0.7987,0.6301,0.5849,
837.672,0.5961,,,,,,,
838.24988,,,,,,,,0.66623
838.25,,1.239,1.146,1.208,0.8004,0.631,0.5864,
838.59,0.5988,,,,,,,
839.1,,1.243,1.151,1.213,0.8023,0.6322,0.5881,
839.10075,,,,,,,,0.66913
839.508,0.6017,,,,,,,
839.95,,1.248,1.156,1.218,0.8044,0.6334,0.59,
839.9516199999999,,,,,,,,0.6722
840.425,0.6047,,,,,,,
840.8,,1.252,1.162,1.223,0.8066,0.6349,0.5921,
840.8025,,,,,,,,0.67545
841.343,0.608,,,,,,,
841.65,,1.257,1.168,1.228,0.8091,0.6365,0.5944,
841.6533699999999,,,,,,,,0.67883
842.261,0.6115,,,,,,,
842.5,,1.262,1.174,1.234,0.8117,0.6383,0.5968,
842.50424,,,,,,,,0.6823100000000001
843.178,0.6151,,,,,,,
843.35511,,,,,,,,0.68593
843.36,,1.267,1.181,1.24,0.8145,0.6403,0.5995,
844.096,0.6188,,,,,,,
844.2059800000001,,,,,,,,0.6896800000000001
844.21,,1.273,1.188,1.246,0.8175,0.6424,0.6023,
845.014,0.6226,,,,,,,
845.05685,,,,,,,,0.69358
845.06,,1.279,1.195,1.253,0.8206,0.6446,0.6052,
845.9077300000001,,,,,,,,0.69755
845.91,,1.285,1.203,1.259,0.8238,0.6469,0.6081,
845.932,0.6265,,,,,,,
846.7586,,,,,,,,0.7015899999999999
846.76,,1.291,1.21,1.266,0.8271,0.6491,0.611,
846.849,0.6304,,,,,,,
847.6094699999999,,,,,,,,0.7056600000000001
847.61,,1.297,1.217,1.273,0.8304,0.6512,0.6138,
847.767,0.6342,,,,,,,
848.46,,1.303,1.225,1.279,0.8337,0.6532,0.6165,
848.4603400000001,,,,,,,,0.7096100000000001
848.685,0.638,,,,,,,
849.31,,1.309,1.231,1.285,0.8368,0.6549,0.6189,
849.31121,,,,,,,,0.71348
849.602,0.6416,,,,,,,
850.16,,1.315,1.238,1.291,0.8398,0.6565,0.6211,
850.1620800000001,,,,,,,,0.71716
850.52,0.645,,,,,,,
851.01,,1.32,1.244,1.297,0.8425,0.6578,0.6232,
851.01295,,,,,,,,0.72053
851.438,0.6481,,,,,,,
851.86,,1.325,1.25,1.302,0.845,0.6589,0.625,
851.8638300000001,,,,,,,,0.72363
852.356,0.6509,,,,,,,
852.71,,1.33,1.256,1.307,0.8471,0.6599,0.6266,
852.7147,,,,,,,,0.72636
853.273,0.6533,,,,,,,
853.56557,,,,,,,,0.72868
853.57,,1.334,1.261,1.311,0.849,0.6608,0.628,
854.191,0.6554,,,,,,,
854.4164400000001,,,,,,,,0.7306199999999999
854.42,,1.337,1.266,1.315,0.8506,0.6616,0.6293,
855.109,0.6571,,,,,,,
855.26731,,,,,,,,0.73219
855.27,,1.341,1.271,1.318,0.8519,0.6623,0.6304,
856.026,0.6587,,,,,,,
856.11818,,,,,,,,0.73336
856.12,,1.343,1.275,1.32,0.853,0.6629,0.6313,
856.944,0.6601,,,,,,,
856.96906,,,,,,,,0.73419
856.97,,1.346,1.279,1.322,0.8539,0.6634,0.6321,
857.8199300000001,,,,,,,,0.73469
857.82,,1.348,1.283,1.324,0.8546,0.6637,0.6327,
857.862,0.6613,,,,,,,
858.67,,1.35,1.286,1.326,0.8552,0.6639,0.6332,
858.6708,,,,,,,,0.73487
858.78,0.6625,,,,,,,
859.52,,1.351,1.289,1.327,0.8556,0.664,0.6335,
859.52167,,,,,,,,0.73485
859.697,0.6635,,,,,,,
860.37,,1.353,1.292,1.328,0.856,0.6639,0.6337,
860.3725400000001,,,,,,,,0.7346
860.615,0.6645,,,,,,,
861.22,,1.354,1.294,1.329,0.8563,0.6637,0.6337,
861.22341,,,,,,,,0.73418
861.533,0.6655,,,,,,,
862.07,,1.355,1.296,1.329,0.8565,0.6636,0.6337,
862.07429,,,,,,,,0.73373
862.45,0.6664,,,,,,,
862.92516,,,,,,,,0.73322
862.93,,1.356,1.299,1.33,0.8567,0.6634,0.6337,
863.368,0.6673,,,,,,,
863.7760300000001,,,,,,,,0.73268
863.78,,1.358,1.301,1.331,0.857,0.6633,0.6337,
864.286,0.6683,,,,,,,
864.6269,,,,,,,,0.73218
864.63,,1.359,1.304,1.332,0.8574,0.6634,0.6338,
865.203,0.6693,,,,,,,
865.47777,,,,,,,,0.7316699999999999
865.48,,1.36,1.307,1.334,0.8579,0.6635,0.6339,
866.121,0.6704,,,,,,,
866.3286400000001,,,,,,,,0.73117
866.33,,1.362,1.31,1.335,0.8585,0.6637,0.6342,
867.039,0.6715,,,,,,,
867.1795199999999,,,,,,,,0.73068
867.18,,1.364,1.314,1.336,0.8593,0.664,0.6346,
867.957,0.6726,,,,,,,
868.03,,1.366,1.318,1.338,0.8601,0.6643,0.635,
868.03039,,,,,,,,0.73017
868.874,0.6738,,,,,,,
868.88,,1.368,1.321,1.339,0.861,0.6647,0.6354,
868.88126,,,,,,,,0.7295699999999999
869.73,,1.37,1.325,1.341,0.8619,0.665,0.6358,
869.7321300000001,,,,,,,,0.7289399999999999
869.792,0.6749,,,,,,,
870.58,,1.372,1.329,1.342,0.8627,0.6653,0.636,
870.583,,,,,,,,0.72816
870.71,0.676,,,,,,,
871.43,,1.374,1.332,1.343,0.8633,0.6654,0.636,
871.43387,,,,,,,,0.72713
871.627,0.677,,,,,,,
872.28,,1.375,1.336,1.344,0.8637,0.6653,0.6358,
872.28475,,,,,,,,0.72591
872.545,0.6778,,,,,,,
873.1356199999999,,,,,,,,0.72438
873.14,,1.377,1.339,1.344,0.8638,0.665,0.6354,
873.463,0.6784,,,,,,,
873.98649,,,,,,,,0.72248
873.99,,1.377,1.341,1.344,0.8635,0.6643,0.6346,
874.381,0.6786,,,,,,,
874.83736,,,,,,,,0.72026
874.84,,1.377,1.343,1.343,0.8629,0.6633,0.6334,
875.298,0.6784,,,,,,,
875.6882300000001,,,,,,,,0.71762
875.69,,1.376,1.344,1.341,0.862,0.662,0.6319,
876.216,0.6777,,,,,,,
876.5391,,,,,,,,0.7145600000000001
876.54,,1.375,1.345,1.339,0.8607,0.6604,0.63,
877.134,0.6764,,,,,,,
877.38997,,,,,,,,0.71111
877.39,,1.373,1.344,1.335,0.8589,0.6585,0.6277,
878.051,0.6746,,,,,,,
878.24,,1.37,1.343,1.331,0.8568,0.6563,0.625,
878.24085,,,,,,,,0.70723
878.969,0.6721,,,,,,,
879.09,,1.366,1.34,1.326,0.8541,0.6538,0.6219,
879.0917199999999,,,,,,,,0.70291
879.887,0.6691,,,,,,,
879.94,,1.361,1.337,1.32,0.851,0.6511,0.6185,
879.94259,,,,,,,,0.69822
880.79,,1.355,1.332,1.313,0.8475,0.648,0.6148,
880.79346,,,,,,,,0.69318
880.804,0.6656,,,,,,,
881.64,,1.348,1.327,1.305,0.8434,0.6446,0.6108,
881.6443300000001,,,,,,,,0.68779
881.722,0.6615,,,,,,,
882.4952,,,,,,,,0.68212
882.5,,1.341,1.321,1.297,0.839,0.6409,0.6066,
882.64,0.657,,,,,,,
883.34608,,,,,,,,0.6762600000000001
883.35,,1.333,1.314,1.288,0.8342,0.637,0.6022,
883.558,0.6521,,,,,,,
884.19695,,,,,,,,0.6701699999999999
884.2,,1.324,1.307,1.278,0.829,0.6329,0.5977,
884.475,0.6467,,,,,,,
885.0478199999999,,,,,,,,0.66397
885.05,,1.314,1.299,1.268,0.8235,0.6286,0.5931,
885.393,0.641,,,,,,,
885.89869,,,,,,,,0.65769
885.9,,1.304,1.291,1.257,0.8178,0.6242,0.5885,
886.311,0.635,,,,,,,
886.74956,,,,,,,,0.65133
886.75,,1.293,1.282,1.246,0.8119,0.6197,0.5838,
887.228,0.6287,,,,,,,
887.6,,1.282,1.273,1.234,0.8058,0.6151,0.5791,
887.6004300000001,,,,,,,,0.6449699999999999
888.146,0.6221,,,,,,,
888.45,,1.271,1.263,1.222,0.7996,0.6104,0.5742,
888.4513099999999,,,,,,,,0.63863
889.064,0.6154,,,,,,,
889.3,,1.259,1.253,1.21,0.7932,0.6057,0.5694,
889.30218,,,,,,,,0.63231
889.982,0.6086,,,,,,,
890.15,,1.247,1.243,1.198,0.7867,0.601,0.5645,
890.15305,,,,,,,,0.6260600000000001
890.899,0.6017,,,,,,,
891.0,,1.235,1.232,1.186,0.7802,0.5961,0.5596,
891.0039199999999,,,,,,,,0.61988
891.817,0.595,,,,,,,
891.85,,1.223,1.221,1.173,0.7736,0.5913,0.5546,
891.8547900000001,,,,,,,,0.6137699999999999
892.70566,,,,,,,,0.60778
892.71,,1.211,1.21,1.161,0.7669,0.5865,0.5497,
892.735,0.5883,,,,,,,
893.55654,,,,,,,,0.6019
893.56,,1.199,1.199,1.149,0.7604,0.5817,0.5448,
893.652,0.5817,,,,,,,
894.4074099999999,,,,,,,,0.59613
894.41,,1.186,1.188,1.137,0.7539,0.577,0.5399,
894.57,0.5753,,,,,,,
895.2582800000001,,,,,,,,0.59048
895.26,,1.174,1.177,1.125,0.7475,0.5724,0.5351,
895.488,0.5689,,,,,,,
896.10915,,,,,,,,0.58496
896.11,,1.162,1.166,1.113,0.7412,0.5678,0.5303,
896.406,0.5626,,,,,,,
896.96,,1.15,1.155,1.101,0.735,0.5633,0.5256,
896.9600199999999,,,,,,,,0.57955
897.323,0.5564,,,,,,,
897.81,,1.139,1.145,1.09,0.7289,0.5589,0.521,
897.8108900000001,,,,,,,,0.57424
898.241,0.5502,,,,,,,
898.66,,1.127,1.134,1.078,0.7228,0.5546,0.5164,
898.66176,,,,,,,,0.56903
899.159,0.5441,,,,,,,
899.51,,1.115,1.124,1.067,0.7168,0.5503,0.5119,
899.51264,,,,,,,,0.56391
900.076,0.538,,,,,,,
900.36,,1.104,1.113,1.056,0.7109,0.5461,0.5074,
900.36351,,,,,,,,0.55887
900.994,0.532,,,,,,,
901.21,,1.092,1.103,1.045,0.705,0.5419,0.5031,
901.21438,,,,,,,,0.55392
901.912,0.5261,,,,,,,
902.06525,,,,,,,,0.54905
902.07,,1.081,1.093,1.034,0.6992,0.5378,0.4988,
902.829,0.5203,,,,,,,
902.91612,,,,,,,,0.54427
902.92,,1.07,1.083,1.024,0.6934,0.5337,0.4946,
903.747,0.5146,,,,,,,
903.76699,,,,,,,,0.53956
903.77,,1.059,1.073,1.013,0.6878,0.5296,0.4905,
904.61787,,,,,,,,0.53493
904.62,,1.049,1.063,1.003,0.6822,0.5255,0.4865,
904.665,0.509,,,,,,,
905.46874,,,,,,,,0.5303899999999999
905.47,,1.038,1.054,0.993,0.6767,0.5215,0.4825,
905.583,0.5035,,,,,,,
906.31961,,,,,,,,0.5259199999999999
906.32,,1.028,1.044,0.983,0.6713,0.5175,0.4786,
906.5,0.498,,,,,,,
907.17,,1.017,1.035,0.9731,0.666,0.5135,0.4748,
907.17048,,,,,,,,0.52153
907.418,0.4927,,,,,,,
908.02,,1.007,1.026,0.9634,0.6607,0.5095,0.4709,
908.02135,,,,,,,,0.5172100000000001
908.336,0.4875,,,,,,,
908.87,,0.9972,1.017,0.9538,0.6555,0.5056,0.4672,
908.87222,,,,,,,,0.51297
909.253,0.4824,,,,,,,
909.72,,0.9874,1.008,0.9444,0.6503,0.5018,0.4635,
909.7231,,,,,,,,0.5088
910.171,0.4774,,,,,,,
910.57,,0.9777,0.9994,0.9352,0.6451,0.498,0.4598,
910.57397,,,,,,,,0.50468
911.089,0.4725,,,,,,,
911.42,,0.9681,0.9907,0.926,0.64,0.4943,0.4562,
911.42484,,,,,,,,0.50061
912.007,0.4677,,,,,,,
912.27571,,,,,,,,0.49661
912.28,,0.9587,0.982,0.917,0.635,0.4906,0.4527,
912.924,0.463,,,,,,,
913.12658,,,,,,,,0.49265
913.13,,0.9494,0.9735,0.9082,0.63,0.487,0.4492,
913.842,0.4584,,,,,,,
913.97745,,,,,,,,0.48875
913.98,,0.9402,0.9651,0.8995,0.6251,0.4834,0.4458,
914.76,0.4539,,,,,,,
914.82833,,,,,,,,0.48491
914.83,,0.9312,0.9568,0.891,0.6203,0.4798,0.4425,
915.677,0.4495,,,,,,,
915.6792,,,,,,,,0.48112
915.68,,0.9223,0.9488,0.8826,0.6155,0.4763,0.4391,
916.53,,0.9136,0.9409,0.8743,0.6109,0.4728,0.4358,
916.53007,,,,,,,,0.4774
916.595,0.4453,,,,,,,
917.38,,0.905,0.9332,0.8662,0.6062,0.4694,0.4325,
917.38094,,,,,,,,0.47372
917.513,0.4411,,,,,,,
918.23,,0.8965,0.9256,0.8582,0.6017,0.4661,0.4292,
918.23181,,,,,,,,0.47011
918.43,0.437,,,,,,,
919.08,,0.8882,0.9181,0.8504,0.5972,0.4628,0.426,
919.08268,,,,,,,,0.4665399999999999
919.348,0.433,,,,,,,
919.93,,0.88,0.9108,0.8427,0.5928,0.4596,0.4228,
919.93356,,,,,,,,0.46303
920.266,0.429,,,,,,,
920.78,,0.872,0.9035,0.8351,0.5885,0.4564,0.4197,
920.78443,,,,,,,,0.45957
921.184,0.4251,,,,,,,
921.6353,,,,,,,,0.45615
921.64,,0.8641,0.8963,0.8276,0.5842,0.4533,0.4166,
922.101,0.4212,,,,,,,
922.48617,,,,,,,,0.4527899999999999
922.49,,0.8564,0.8892,0.8203,0.58,0.4503,0.4136,
923.019,0.4174,,,,,,,
923.33704,,,,,,,,0.44948
923.34,,0.8488,0.8823,0.8131,0.5759,0.4472,0.4106,
923.937,0.4137,,,,,,,
924.18791,,,,,,,,0.44621
924.19,,0.8413,0.8754,0.806,0.5718,0.4442,0.4077,
924.854,0.41,,,,,,,
925.03878,,,,,,,,0.443
925.04,,0.8339,0.8687,0.799,0.5678,0.4412,0.4048,
925.772,0.4064,,,,,,,
925.88966,,,,,,,,0.43983
925.89,,0.8267,0.8621,0.7922,0.5639,0.4383,0.402,
926.69,0.4029,,,,,,,
926.74,,0.8196,0.8556,0.7854,0.56,0.4354,0.3992,
926.74053,,,,,,,,0.4367
927.59,,0.8126,0.8493,0.7788,0.5562,0.4325,0.3964,
927.5914,,,,,,,,0.43362
927.608,0.3994,,,,,,,
928.44,,0.8057,0.8431,0.7723,0.5524,0.4296,0.3937,
928.44227,,,,,,,,0.43058
928.525,0.3961,,,,,,,
929.29,,0.7989,0.837,0.7659,0.5487,0.4267,0.3909,
929.29314,,,,,,,,0.4275899999999999
929.443,0.3928,,,,,,,
930.14,,0.7923,0.831,0.7596,0.5451,0.4239,0.3883,
930.14401,,,,,,,,0.4246399999999999
930.361,0.3896,,,,,,,
930.99,,0.7857,0.8251,0.7534,0.5414,0.4211,0.3856,
930.99489,,,,,,,,0.42173
931.278,0.3865,,,,,,,
931.84576,,,,,,,,0.41885
931.85,,0.7793,0.8192,0.7473,0.5378,0.4184,0.383,
932.196,0.3834,,,,,,,
932.69663,,,,,,,,0.41602
932.7,,0.7729,0.8134,0.7413,0.5343,0.4156,0.3804,
933.114,0.3804,,,,,,,
933.5475,,,,,,,,0.41322
933.55,,0.7666,0.8076,0.7353,0.5307,0.4129,0.3778,
934.032,0.3774,,,,,,,
934.39837,,,,,,,,0.41045
934.4,,0.7605,0.8019,0.7295,0.5271,0.4103,0.3752,
934.949,0.3745,,,,,,,
935.24924,,,,,,,,0.4077199999999999
935.25,,0.7544,0.7962,0.7237,0.5236,0.4077,0.3727,
935.867,0.3716,,,,,,,
936.1,,0.7484,0.7906,0.718,0.5201,0.4051,0.3702,
936.10012,,,,,,,,0.40501
936.785,0.3687,,,,,,,
936.95,,0.7425,0.7851,0.7124,0.5167,0.4026,0.3677,
936.95099,,,,,,,,0.40234
937.702,0.3658,,,,,,,
937.8,,0.7367,0.7797,0.7069,0.5133,0.4001,0.3653,
937.80186,,,,,,,,0.39971
938.62,0.363,,,,,,,
938.65,,0.731,0.7744,0.7015,0.5099,0.3976,0.3629,
938.65273,,,,,,,,0.39711
939.5,,0.7254,0.7692,0.6961,0.5066,0.3952,0.3607,
939.5036,,,,,,,,0.39455
939.538,0.3603,,,,,,,
940.35,,0.7199,0.7642,0.6909,0.5035,0.3929,0.3584,
940.35447,,,,,,,,0.39202
940.455,0.3576,,,,,,,
941.20535,,,,,,,,0.38953
941.21,,0.7144,0.7593,0.6857,0.5003,0.3906,0.3563,
941.373,0.355,,,,,,,
942.05622,,,,,,,,0.3870699999999999
942.06,,0.709,0.7546,0.6805,0.4973,0.3883,0.3542,
942.291,0.3525,,,,,,,
942.90709,,,,,,,,0.38464
942.91,,0.7037,0.7498,0.6755,0.4943,0.386,0.3521,
943.209,0.35,,,,,,,
943.75796,,,,,,,,0.38224
943.76,,0.6985,0.7452,0.6705,0.4913,0.3837,0.35,
944.126,0.3476,,,,,,,
944.60883,,,,,,,,0.37987
944.61,,0.6933,0.7405,0.6655,0.4884,0.3815,0.348,
945.044,0.3452,,,,,,,
945.4597,,,,,,,,0.3775199999999999
945.46,,0.6882,0.7359,0.6606,0.4856,0.3792,0.3459,
945.962,0.3429,,,,,,,
946.31,,0.6832,0.7313,0.6558,0.4827,0.377,0.3438,
946.31057,,,,,,,,0.3752
946.879,0.3406,,,,,,,
947.16,,0.6782,0.7268,0.651,0.4798,0.3748,0.3417,
947.16145,,,,,,,,0.3729099999999999
947.797,0.3383,,,,,,,
948.01,,0.6733,0.7223,0.6463,0.477,0.3726,0.3397,
948.01232,,,,,,,,0.37066
948.715,0.336,,,,,,,
948.86,,0.6685,0.7179,0.6417,0.4741,0.3704,0.3376,
948.86319,,,,,,,,0.3684199999999999
949.633,0.3336,,,,,,,
949.71,,0.6637,0.7135,0.6371,0.4713,0.3683,0.3355,
949.71406,,,,,,,,0.36622
950.55,0.3313,,,,,,,
950.56,,0.659,0.7091,0.6325,0.4685,0.3661,0.3334,
950.56493,,,,,,,,0.36404
951.4158,,,,,,,,0.36189
951.42,,0.6543,0.7049,0.628,0.4657,0.364,0.3313,
951.468,0.329,,,,,,,
952.26668,,,,,,,,0.35977
952.27,,0.6497,0.7006,0.6236,0.4629,0.3619,0.3293,
952.386,0.3267,,,,,,,
953.11755,,,,,,,,0.35766
953.12,,0.6452,0.6964,0.6192,0.4602,0.3597,0.3272,
953.303,0.3245,,,,,,,
953.96842,,,,,,,,0.35558
953.97,,0.6407,0.6923,0.6148,0.4575,0.3576,0.3252,
954.221,0.3223,,,,,,,
954.81929,,,,,,,,0.35353
954.82,,0.6362,0.6882,0.6105,0.4548,0.3556,0.3232,
955.139,0.3202,,,,,,,
955.67,,0.6318,0.6841,0.6062,0.4522,0.3535,0.3213,
955.67016,,,,,,,,0.3515
956.056,0.3182,,,,,,,
956.52,,0.6275,0.6801,0.602,0.4496,0.3515,0.3195,
956.52103,,,,,,,,0.34949
956.974,0.3163,,,,,,,
957.37,,0.6232,0.6761,0.5978,0.4471,0.3495,0.3176,
957.37191,,,,,,,,0.3475
957.892,0.3143,,,,,,,
958.22,,0.6189,0.6722,0.5937,0.4447,0.3475,0.3159,
958.22278,,,,,,,,0.34554
958.81,0.3124,,,,,,,
959.07,,0.6147,0.6684,0.5896,0.4423,0.3456,0.3142,
959.07365,,,,,,,,0.34359
959.727,0.3105,,,,,,,
959.92,,0.6106,0.6646,0.5855,0.4399,0.3437,0.3125,
959.92452,,,,,,,,0.34168
960.645,0.3086,,,,,,,
960.77539,,,,,,,,0.33978
960.78,,0.6064,0.6608,0.5815,0.4375,0.3418,0.3108,
961.563,0.3066,,,,,,,
961.62626,,,,,,,,0.3379
961.63,,0.6024,0.6571,0.5775,0.4351,0.34,0.3092,
962.47714,,,,,,,,0.33605
962.48,0.3047,0.5983,0.6534,0.5736,0.4328,0.3382,0.3075,
963.32801,,,,,,,,0.3342199999999999
963.33,,0.5943,0.6498,0.5697,0.4304,0.3364,0.3059,
963.398,0.3027,,,,,,,
964.17888,,,,,,,,0.33241
964.18,,0.5904,0.6462,0.5658,0.428,0.3346,0.3042,
964.316,0.3008,,,,,,,
965.02975,,,,,,,,0.33061
965.03,,0.5865,0.6426,0.5619,0.4256,0.3328,0.3026,
965.234,0.2988,,,,,,,
965.88,,0.5826,0.6391,0.5581,0.4233,0.3311,0.301,
965.88062,,,,,,,,0.32884
966.151,0.2969,,,,,,,
966.73,,0.5787,0.6356,0.5543,0.4209,0.3294,0.2994,
966.73149,,,,,,,,0.32708
967.069,0.295,,,,,,,
967.58,,0.5749,0.6322,0.5506,0.4186,0.3277,0.2978,
967.58236,,,,,,,,0.32534
967.987,0.2931,,,,,,,
968.43,,0.5712,0.6287,0.5469,0.4163,0.3259,0.2962,
968.43324,,,,,,,,0.3236199999999999
968.904,0.2913,,,,,,,
969.28,,0.5674,0.6253,0.5432,0.414,0.3242,0.2947,
969.28411,,,,,,,,0.32192
969.822,0.2895,,,,,,,
970.13,,0.5637,0.6219,0.5395,0.4118,0.3225,0.2932,
970.13498,,,,,,,,0.32023
970.74,0.2878,,,,,,,
970.98585,,,,,,,,0.3185699999999999
970.99,,0.5601,0.6185,0.5359,0.4096,0.3208,0.2916,
971.658,0.2862,,,,,,,
971.83672,,,,,,,,0.31692
971.84,,0.5564,0.6151,0.5322,0.4074,0.3191,0.2901,
972.575,0.2845,,,,,,,
972.68759,,,,,,,,0.31528
972.69,,0.5528,0.6117,0.5287,0.4051,0.3174,0.2885,
973.493,0.2829,,,,,,,
973.53847,,,,,,,,0.31366
973.54,,0.5492,0.6083,0.5251,0.4029,0.3156,0.287,
974.38934,,,,,,,,0.31206
974.39,,0.5457,0.6049,0.5215,0.4007,0.3139,0.2854,
974.411,0.2813,,,,,,,
975.24,,0.5422,0.6015,0.518,0.3984,0.3121,0.2837,
975.24021,,,,,,,,0.3104699999999999
975.328,0.2797,,,,,,,
976.09,,0.5387,0.5982,0.5145,0.3962,0.3104,0.2821,
976.09108,,,,,,,,0.3089
976.246,0.2781,,,,,,,
976.94,,0.5353,0.5948,0.5111,0.3939,0.3087,0.2804,
976.94195,,,,,,,,0.30734
977.164,0.2765,,,,,,,
977.79,,0.5318,0.5916,0.5077,0.3917,0.3069,0.2788,
977.79282,,,,,,,,0.3058
978.081,0.2748,,,,,,,
978.64,,0.5285,0.5883,0.5042,0.3895,0.3052,0.2772,
978.6437,,,,,,,,0.30427
978.999,0.2731,,,,,,,
979.49,,0.5251,0.585,0.5009,0.3873,0.3035,0.2756,
979.49457,,,,,,,,0.30276
979.917,0.2713,,,,,,,
980.34544,,,,,,,,0.30126
980.35,,0.5218,0.5818,0.4975,0.3852,0.3019,0.274,
980.835,0.2696,,,,,,,
981.19631,,,,,,,,0.29978
981.2,,0.5185,0.5786,0.4942,0.383,0.3002,0.2724,
981.752,0.2678,,,,,,,
982.04718,,,,,,,,0.2983099999999999
982.05,,0.5152,0.5754,0.4908,0.3809,0.2985,0.2709,
982.67,0.266,,,,,,,
982.89805,,,,,,,,0.29686
982.9,,0.5119,0.5722,0.4875,0.3787,0.2969,0.2694,
983.588,0.2643,,,,,,,
983.74893,,,,,,,,0.2954199999999999
983.75,,0.5087,0.5691,0.4843,0.3766,0.2953,0.268,
984.505,0.2626,,,,,,,
984.5998,,,,,,,,0.294
984.6,,0.5055,0.5659,0.481,0.3745,0.2937,0.2666,
985.423,0.261,,,,,,,
985.45,,0.5023,0.5629,0.4778,0.3724,0.2921,0.2652,
985.45067,,,,,,,,0.29259
986.3,,0.4991,0.5598,0.4746,0.3703,0.2906,0.2638,
986.30154,,,,,,,,0.29119
986.341,0.2594,,,,,,,
987.15,,0.496,0.5568,0.4714,0.3682,0.2891,0.2625,
987.15241,,,,,,,,0.2898
987.259,0.2579,,,,,,,
988.0,,0.4929,0.5539,0.4682,0.3662,0.2876,0.2613,
988.00328,,,,,,,,0.28843
988.176,0.2564,,,,,,,
988.85,,0.4898,0.551,0.465,0.3642,0.2862,0.26,
988.85416,,,,,,,,0.28707
989.094,0.255,,,,,,,
989.70503,,,,,,,,0.28572
989.71,,0.4868,0.5481,0.4619,0.3623,0.2848,0.2588,
990.012,0.2536,,,,,,,
990.5559,,,,,,,,0.28439
990.56,,0.4837,0.5452,0.4588,0.3603,0.2834,0.2576,
990.929,0.2522,,,,,,,
991.40677,,,,,,,,0.28307
991.41,,0.4807,0.5423,0.4557,0.3584,0.282,0.2564,
991.847,0.2508,,,,,,,
992.25764,,,,,,,,0.28175
992.26,,0.4777,0.5393,0.4526,0.3566,0.2805,0.2552,
992.765,0.2494,,,,,,,
993.10851,,,,,,,,0.28046
993.11,,0.4747,0.5363,0.4496,0.3546,0.2791,0.2539,
993.682,0.2481,,,,,,,
993.95938,,,,,,,,0.27917
993.96,,0.4718,0.5332,0.4465,0.3527,0.2776,0.2526,
994.6,0.2467,,,,,,,
994.81,,0.4689,0.5301,0.4435,0.3508,0.2761,0.2512,
994.81026,,,,,,,,0.2779
995.518,0.2452,,,,,,,
995.66,,0.466,0.5269,0.4405,0.3488,0.2745,0.2499,
995.66113,,,,,,,,0.27664
996.436,0.2437,,,,,,,
996.51,,0.4631,0.5237,0.4375,0.3468,0.2729,0.2485,
996.512,,,,,,,,0.2754
997.353,0.2422,,,,,,,
997.36,,0.4603,0.5206,0.4346,0.3448,0.2713,0.2471,
997.36287,,,,,,,,0.2741699999999999
998.21,,0.4574,0.5175,0.4316,0.3428,0.2698,0.2457,
998.21374,,,,,,,,0.27295
998.271,0.2407,,,,,,,
999.06,,0.4546,0.5145,0.4287,0.3409,0.2682,0.2443,
999.06461,,,,,,,,0.27174
999.189,0.2391,,,,,,,
999.91549,,,,,,,,0.27054
999.92,,0.4518,0.5115,0.4258,0.3389,0.2666,0.243,
1000.106,0.2375,,,,,,,
1000.76636,,,,,,,,0.26936
1000.77,,0.4491,0.5087,0.4229,0.337,0.2651,0.2417,
1001.024,0.236,,,,,,,
1001.61723,,,,,,,,0.26818
1001.62,,0.4463,0.5059,0.42,0.3351,0.2636,0.2405,
1001.942,0.2345,,,,,,,
1002.4681,,,,,,,,0.26702
1002.47,,0.4436,0.5032,0.4172,0.3333,0.2622,0.2393,
1002.86,0.233,,,,,,,
1003.31897,,,,,,,,0.26586
1003.32,,0.4409,0.5006,0.4143,0.3315,0.2608,0.2382,
1003.777,0.2315,,,,,,,
1004.16984,,,,,,,,0.2647199999999999
1004.17,,0.4382,0.498,0.4115,0.3297,0.2594,0.2371,
1004.695,0.2302,,,,,,,
1005.02,,0.4356,0.4953,0.4087,0.3279,0.2581,0.236,
1005.02072,,,,,,,,0.26359
1005.613,0.2289,,,,,,,
1005.87,,0.433,0.4927,0.4059,0.3262,0.2568,0.235,
1005.87159,,,,,,,,0.26247
1006.53,0.2276,,,,,,,
1006.72,,0.4304,0.4901,0.4032,0.3244,0.2556,0.2339,
1006.72246,,,,,,,,0.26136
1007.448,0.2264,,,,,,,
1007.57,,0.4278,0.4875,0.4004,0.3227,0.2544,0.2329,
1007.57333,,,,,,,,0.26027
1008.366,0.2252,,,,,,,
1008.42,,0.4252,0.4848,0.3977,0.3211,0.2532,0.2318,
1008.4242,,,,,,,,0.25918
1009.27507,,,,,,,,0.25811
1009.28,,0.4226,0.4821,0.395,0.3194,0.252,0.2307,
1009.284,0.224,,,,,,,
1010.12595,,,,,,,,0.25705
1010.13,,0.4201,0.4795,0.3923,0.3177,0.2508,0.2296,
1010.201,0.2228,,,,,,,
1010.97682,,,,,,,,0.256
1010.98,,0.4176,0.4768,0.3897,0.3161,0.2496,0.2285,
1011.119,0.2215,,,,,,,
1011.82769,,,,,,,,0.2549599999999999
1011.83,,0.4151,0.4742,0.387,0.3144,0.2483,0.2273,
1012.037,0.2202,,,,,,,
1012.67856,,,,,,,,0.25393
1012.68,,0.4126,0.4715,0.3844,0.3128,0.247,0.226,
1012.954,0.2189,,,,,,,
1013.52943,,,,,,,,0.2529099999999999
1013.53,,0.4102,0.4688,0.3818,0.3111,0.2457,0.2248,
1013.872,0.2175,,,,,,,
1014.38,,0.4078,0.4662,0.3792,0.3095,0.2444,0.2235,
1014.3803,,,,,,,,0.2519
1014.79,0.2162,,,,,,,
1015.23,,0.4053,0.4636,0.3766,0.3078,0.2431,0.2223,
1015.23117,,,,,,,,0.2509
1015.707,0.2148,,,,,,,
1016.08,,0.403,0.4609,0.374,0.3061,0.2418,0.221,
1016.08205,,,,,,,,0.24991
1016.625,0.2134,,,,,,,
1016.93,,0.4006,0.4583,0.3715,0.3045,0.2405,0.2198,
1016.93292,,,,,,,,0.24894
1017.543,0.2121,,,,,,,
1017.78,,0.3982,0.4556,0.3689,0.3028,0.2392,0.2187,
1017.78379,,,,,,,,0.2479699999999999
1018.461,0.2108,,,,,,,
1018.63,,0.3959,0.4529,0.3664,0.3011,0.238,0.2175,
1018.63466,,,,,,,,0.24702
1019.378,0.2095,,,,,,,
1019.48553,,,,,,,,0.2460699999999999
1019.49,,0.3936,0.4502,0.364,0.2995,0.2367,0.2164,
1020.296,0.2083,,,,,,,
1020.3364,,,,,,,,0.24514
1020.34,,0.3913,0.4475,0.3615,0.2978,0.2354,0.2154,
1021.18728,,,,,,,,0.24422
1021.19,,0.389,0.4448,0.359,0.2962,0.2342,0.2143,
1021.214,0.2071,,,,,,,
1022.03815,,,,,,,,0.2433
1022.04,,0.3868,0.4421,0.3566,0.2945,0.2329,0.2133,
1022.131,0.206,,,,,,,
1022.88902,,,,,,,,0.2424
1022.89,,0.3846,0.4394,0.3542,0.2929,0.2316,0.2123,
1023.049,0.2048,,,,,,,
1023.73989,,,,,,,,0.24151
1023.74,,0.3824,0.4367,0.3518,0.2913,0.2303,0.2113,
1023.967,0.2037,,,,,,,
1024.59,,0.3802,0.4341,0.3494,0.2898,0.2291,0.2103,
1024.59076,,,,,,,,0.24063
1024.885,0.2025,,,,,,,
1025.44,,0.378,0.4316,0.3471,0.2882,0.2279,0.2093,
1025.44163,,,,,,,,0.23975
1025.802,0.2013,,,,,,,
1026.29,,0.3759,0.4291,0.3447,0.2868,0.2267,0.2084,
1026.29251,,,,,,,,0.23889
1026.72,0.2002,,,,,,,
1027.14,,0.3738,0.4268,0.3424,0.2853,0.2256,0.2075,
1027.14338,,,,,,,,0.23804
1027.638,0.199,,,,,,,
1027.99,,0.3717,0.4245,0.3401,0.284,0.2246,0.2066,
1027.99425,,,,,,,,0.2372
1028.555,0.1977,,,,,,,
1028.84512,,,,,,,,0.2363699999999999
1028.85,,0.3696,0.4223,0.3378,0.2826,0.2237,0.2058,
1029.473,0.1965,,,,,,,
1029.69599,,,,,,,,0.23555
1029.7,,0.3675,0.4201,0.3355,0.2813,0.2228,0.205,
1030.391,0.1953,,,,,,,
1030.54686,,,,,,,,0.23474
1030.55,,0.3655,0.418,0.3333,0.28,0.2219,0.2043,
1031.308,0.1941,,,,,,,
1031.39774,,,,,,,,0.23394
1031.4,,0.3634,0.4158,0.3311,0.2788,0.221,0.2035,
1032.226,0.193,,,,,,,
1032.24861,,,,,,,,0.23315
1032.25,,0.3614,0.4136,0.3289,0.2775,0.2202,0.2028,
1033.09948,,,,,,,,0.23238
1033.1,,0.3594,0.4114,0.3267,0.2762,0.2193,0.202,
1033.144,0.1918,,,,,,,
1033.95,,0.3575,0.409,0.3245,0.2748,0.2184,0.2012,
1033.95035,,,,,,,,0.2316099999999999
1034.062,0.1907,,,,,,,
1034.8,,0.3555,0.4065,0.3224,0.2735,0.2174,0.2003,
1034.8012199999998,,,,,,,,0.23085
1034.979,0.1896,,,,,,,
1035.65,,0.3536,0.404,0.3202,0.2721,0.2164,0.1994,
1035.65209,,,,,,,,0.2301099999999999
1035.897,0.1885,,,,,,,
1036.5,,0.3517,0.4013,0.3181,0.2707,0.2154,0.1985,
1036.50296,,,,,,,,0.22937
1036.815,0.1874,,,,,,,
1037.35,,0.3498,0.3987,0.316,0.2693,0.2142,0.1975,
1037.35384,,,,,,,,0.22864
1037.732,0.1864,,,,,,,
1038.2,,0.3479,0.3959,0.3139,0.268,0.2131,0.1965,
1038.20471,,,,,,,,0.22793
1038.65,0.1853,,,,,,,
1039.05558,,,,,,,,0.2272199999999999
1039.06,,0.346,0.3933,0.3119,0.2666,0.2119,0.1955,
1039.568,0.1843,,,,,,,
1039.90645,,,,,,,,0.22653
1039.91,,0.3442,0.3906,0.3099,0.2652,0.2107,0.1945,
1040.486,0.1832,,,,,,,
1040.75732,,,,,,,,0.22584
1040.76,,0.3424,0.3881,0.3078,0.2639,0.2095,0.1935,
1041.403,0.1822,,,,,,,
1041.60819,,,,,,,,0.22516
1041.61,,0.3406,0.3857,0.3058,0.2626,0.2083,0.1925,
1042.321,0.1811,,,,,,,
1042.45907,,,,,,,,0.2245
1042.46,,0.3388,0.3834,0.3039,0.2614,0.2072,0.1916,
1043.239,0.1801,,,,,,,
1043.30994,,,,,,,,0.22384
1043.31,,0.337,0.3812,0.3019,0.2602,0.2061,0.1908,
1044.156,0.179,,,,,,,
1044.16,,0.3353,0.3793,0.3,0.2591,0.2052,0.19,
1044.16081,,,,,,,,0.22319
1045.01,,0.3336,0.3775,0.2981,0.258,0.2043,0.1893,
1045.01168,,,,,,,,0.22255
1045.074,0.178,,,,,,,
1045.86,,0.3319,0.3758,0.2962,0.2569,0.2036,0.1887,
1045.86255,,,,,,,,0.2219199999999999
1045.992,0.1771,,,,,,,
1046.71,,0.3302,0.3743,0.2943,0.2559,0.203,0.1881,
1046.7134199999998,,,,,,,,0.2213
1046.91,0.1761,,,,,,,
1047.56,,0.3285,0.3728,0.2924,0.255,0.2025,0.1876,
1047.5643,,,,,,,,0.2207
1047.827,0.1752,,,,,,,
1048.41517,,,,,,,,0.2201
1048.42,,0.3269,0.3715,0.2906,0.2541,0.2021,0.1872,
1048.745,0.1744,,,,,,,
1049.26604,,,,,,,,0.2195099999999999
1049.27,,0.3252,0.3701,0.2888,0.2531,0.2017,0.1869,
1049.663,0.1735,,,,,,,
1050.11691,,,,,,,,0.21893
1050.12,,0.3236,0.3687,0.287,0.2522,0.2013,0.1865,
1050.58,0.1727,,,,,,,
1050.9677800000002,,,,,,,,0.21836
1050.97,,0.322,0.3673,0.2852,0.2513,0.2009,0.1861,
1051.498,0.1718,,,,,,,
1051.81865,,,,,,,,0.2178
1051.82,,0.3204,0.3656,0.2835,0.2504,0.2003,0.1857,
1052.416,0.1709,,,,,,,
1052.66953,,,,,,,,0.21725
1052.67,,0.3189,0.3639,0.2818,0.2494,0.1998,0.1853,
1053.333,0.17,,,,,,,
1053.52,,0.3173,0.3619,0.28,0.2484,0.1991,0.1848,
1053.5204,,,,,,,,0.2167199999999999
1054.251,0.169,,,,,,,
1054.37,,0.3158,0.3598,0.2783,0.2473,0.1983,0.1841,
1054.37127,,,,,,,,0.21619
1055.169,0.168,,,,,,,
1055.22,,0.3143,0.3576,0.2767,0.2462,0.1973,0.1834,
1055.22214,,,,,,,,0.2156699999999999
1056.07,,0.3128,0.3553,0.275,0.2451,0.1964,0.1826,
1056.07301,,,,,,,,0.21516
1056.087,0.167,,,,,,,
1056.92,,0.3113,0.3529,0.2734,0.2439,0.1953,0.1818,
1056.92388,,,,,,,,0.21466
1057.004,0.1659,,,,,,,
1057.77,,0.3099,0.3506,0.2717,0.2428,0.1943,0.1809,
1057.77476,,,,,,,,0.2141699999999999
1057.922,0.1649,,,,,,,
1058.62563,,,,,,,,0.21368
1058.63,,0.3085,0.3482,0.2701,0.2416,0.1933,0.18,
1058.84,0.164,,,,,,,
1059.4765,,,,,,,,0.2132099999999999
1059.48,,0.3071,0.346,0.2686,0.2404,0.1923,0.1792,
1059.757,0.163,,,,,,,
1060.32737,,,,,,,,0.21274
1060.33,,0.3057,0.3439,0.267,0.2392,0.1913,0.1783,
1060.675,0.1621,,,,,,,
1061.17824,,,,,,,,0.21228
1061.18,,0.3043,0.3418,0.2655,0.238,0.1905,0.1776,
1061.593,0.1613,,,,,,,
1062.02911,,,,,,,,0.21183
1062.03,,0.303,0.3399,0.264,0.2368,0.1897,0.177,
1062.511,0.1605,,,,,,,
1062.8799800000002,,,,,,,,0.21139
1062.88,,0.3017,0.3381,0.2625,0.2357,0.1889,0.1764,
1063.428,0.1598,,,,,,,
1063.73,,0.3004,0.3363,0.261,0.2346,0.1882,0.1759,
1063.73086,,,,,,,,0.2109599999999999
1064.346,0.159,,,,,,,
1064.58,,0.2991,0.3346,0.2596,0.2335,0.1876,0.1755,
1064.58173,,,,,,,,0.21053
1065.264,0.1583,,,,,,,
1065.43,,0.2978,0.3329,0.2582,0.2324,0.187,0.1752,
1065.4326,,,,,,,,0.21011
1066.181,0.1577,,,,,,,
1066.28,,0.2966,0.3313,0.2568,0.2314,0.1864,0.1749,
1066.28347,,,,,,,,0.2097
1067.099,0.157,,,,,,,
1067.13,,0.2954,0.3296,0.2554,0.2304,0.1858,0.1746,
1067.13434,,,,,,,,0.2093
1067.98521,,,,,,,,0.2089099999999999
1067.99,,0.2941,0.3279,0.2541,0.2294,0.1851,0.1743,
1068.017,0.1563,,,,,,,
1068.83609,,,,,,,,0.20853
1068.84,,0.2929,0.3263,0.2527,0.2284,0.1844,0.174,
1068.934,0.1556,,,,,,,
1069.68696,,,,,,,,0.2081599999999999
1069.69,,0.2918,0.3246,0.2514,0.2274,0.1837,0.1736,
1069.852,0.1549,,,,,,,
1070.53783,,,,,,,,0.20779
1070.54,,0.2906,0.323,0.2501,0.2265,0.183,0.1732,
1070.77,0.1543,,,,,,,
1071.3887,,,,,,,,0.20744
1071.39,,0.2894,0.3214,0.2488,0.2256,0.1823,0.1728,
1071.688,0.1536,,,,,,,
1072.23957,,,,,,,,0.20709
1072.24,,0.2883,0.3198,0.2476,0.2246,0.1816,0.1723,
1072.605,0.153,,,,,,,
1073.09,,0.2872,0.3183,0.2463,0.2237,0.1809,0.1717,
1073.09044,,,,,,,,0.20675
1073.523,0.1523,,,,,,,
1073.94,,0.2861,0.3169,0.2451,0.2229,0.1802,0.1712,
1073.94132,,,,,,,,0.20643
1074.441,0.1517,,,,,,,
1074.79,,0.285,0.3155,0.2439,0.222,0.1796,0.1706,
1074.79219,,,,,,,,0.20611
1075.358,0.151,,,,,,,
1075.64,,0.2839,0.3141,0.2427,0.2212,0.179,0.17,
1075.64306,,,,,,,,0.2058
1076.276,0.1503,,,,,,,
1076.49,,0.2829,0.3128,0.2415,0.2205,0.1785,0.1694,
1076.49393,,,,,,,,0.20549
1077.194,0.1496,,,,,,,
1077.34,,0.2818,0.3114,0.2403,0.2197,0.1779,0.1687,
1077.3448,,,,,,,,0.2052
1078.112,0.1488,,,,,,,
1078.1956699999998,,,,,,,,0.20492
1078.2,,0.2808,0.31,0.2392,0.219,0.1774,0.168,
1079.029,0.148,,,,,,,
1079.04655,,,,,,,,0.20464
1079.05,,0.2798,0.3087,0.2381,0.2183,0.1769,0.1674,
1079.89742,,,,,,,,0.20437
1079.9,,0.2788,0.3073,0.237,0.2176,0.1763,0.1667,
1079.947,0.1471,,,,,,,
1080.74829,,,,,,,,0.2041099999999999
1080.75,,0.2778,0.3059,0.2359,0.217,0.1758,0.166,
1080.865,0.1462,,,,,,,
1081.59916,,,,,,,,0.2038599999999999
1081.6,,0.2768,0.3046,0.2348,0.2165,0.1753,0.1654,
1081.782,0.1453,,,,,,,
1082.45,,0.2759,0.3034,0.2337,0.216,0.1749,0.1648,
1082.45003,,,,,,,,0.20362
1082.7,0.1444,,,,,,,
1083.3,,0.275,0.3024,0.2327,0.2157,0.1746,0.1644,
1083.3009,,,,,,,,0.20338
1083.618,0.1435,,,,,,,
1084.15,,0.274,0.3015,0.2317,0.2154,0.1744,0.1641,
1084.15177,,,,,,,,0.20315
1084.536,0.1426,,,,,,,
1085.0,,0.2731,0.3008,0.2307,0.2152,0.1744,0.164,
1085.00265,,,,,,,,0.20293
1085.453,0.1417,,,,,,,
1085.85,,0.2722,0.3002,0.2297,0.2151,0.1744,0.164,
1085.85352,,,,,,,,0.20271
1086.371,0.1409,,,,,,,
1086.7,,0.2714,0.2997,0.2287,0.215,0.1746,0.1642,
1086.70439,,,,,,,,0.2025
1087.289,0.1401,,,,,,,
1087.55526,,,,,,,,0.2023
1087.56,,0.2705,0.2993,0.2278,0.2149,0.1748,0.1644,
1088.206,0.1394,,,,,,,
1088.40613,,,,,,,,0.2021
1088.41,,0.2696,0.2988,0.2269,0.2148,0.175,0.1646,
1089.124,0.1387,,,,,,,
1089.257,,,,,,,,0.2019
1089.26,,0.2688,0.2982,0.2259,0.2146,0.1751,0.1648,
1090.042,0.1381,,,,,,,
1090.10788,,,,,,,,0.20172
1090.11,,0.268,0.2975,0.225,0.2142,0.175,0.1649,
1090.95875,,,,,,,,0.20154
1090.959,0.1376,,,,,,,
1090.96,,0.2672,0.2965,0.2242,0.2137,0.1747,0.1648,
1091.80962,,,,,,,,0.20137
1091.81,,0.2664,0.2952,0.2233,0.213,0.1742,0.1645,
1091.877,0.1371,,,,,,,
1092.66,,0.2656,0.2936,0.2224,0.2122,0.1734,0.1641,
1092.66049,,,,,,,,0.2012
1092.795,0.1367,,,,,,,
1093.51,,0.2648,0.2918,0.2216,0.2112,0.1725,0.1634,
1093.51136,,,,,,,,0.20104
1093.713,0.1363,,,,,,,
1094.36,,0.2641,0.2897,0.2208,0.2101,0.1713,0.1626,
1094.3622300000002,,,,,,,,0.20089
1094.63,0.1359,,,,,,,
1095.21,,0.2634,0.2874,0.22,0.209,0.1701,0.1617,
1095.21311,,,,,,,,0.20075
1095.548,0.1355,,,,,,,
1096.06,,0.2626,0.2851,0.2192,0.2078,0.1689,0.1607,
1096.06398,,,,,,,,0.2006099999999999
1096.466,0.1351,,,,,,,
1096.91,,0.2619,0.2828,0.2184,0.2067,0.1678,0.1598,
1096.91485,,,,,,,,0.20048
1097.383,0.1347,,,,,,,
1097.76572,,,,,,,,0.2003599999999999
1097.77,,0.2612,0.2806,0.2177,0.2057,0.1667,0.1589,
1098.301,0.1342,,,,,,,
1098.61659,,,,,,,,0.20024
1098.62,,0.2605,0.2786,0.2169,0.2047,0.1659,0.1581,
1099.219,0.1337,,,,,,,
1099.46746,,,,,,,,0.20013
1099.47,,0.2599,0.2767,0.2162,0.2039,0.1652,0.1574,
1100.137,0.133,,,,,,,
1100.31834,,,,,,,,0.2000299999999999
1100.32,,0.2592,0.2751,0.2155,0.2032,0.1647,0.157,
1101.054,0.1323,,,,,,,
1101.16921,,,,,,,,0.19993
1101.17,,0.2586,0.2738,0.2148,0.2026,0.1644,0.1567,
1101.972,0.1314,,,,,,,
1102.02,,0.2579,0.2727,0.2141,0.2021,0.1643,0.1565,
1102.02008,,,,,,,,0.19983
1102.87,,0.2573,0.2718,0.2135,0.2017,0.1642,0.1565,
1102.87095,,,,,,,,0.19975
1102.89,0.1305,,,,,,,
1103.72,,0.2567,0.271,0.2128,0.2012,0.1642,0.1565,
1103.72182,,,,,,,,0.19966
1103.807,0.1295,,,,,,,
1104.57,,0.2561,0.2703,0.2122,0.2008,0.1642,0.1566,
1104.57269,,,,,,,,0.19959
1104.725,0.1286,,,,,,,
1105.42,,0.2555,0.2697,0.2116,0.2003,0.1641,0.1567,
1105.42356,,,,,,,,0.19952
1105.643,0.1277,,,,,,,
1106.27,,0.2549,0.269,0.211,0.1998,0.164,0.1568,
1106.27444,,,,,,,,0.19946
1106.56,0.127,,,,,,,
1107.12531,,,,,,,,0.19941
1107.13,,0.2544,0.2682,0.2104,0.1993,0.1638,0.1569,
1107.478,0.1264,,,,,,,
1107.97618,,,,,,,,0.1993599999999999
1107.98,,0.2538,0.2673,0.2098,0.1988,0.1635,0.1568,
1108.396,0.126,,,,,,,
1108.82705,,,,,,,,0.19932
1108.83,,0.2533,0.2662,0.2092,0.1981,0.163,0.1565,
1109.314,0.1259,,,,,,,
1109.67792,,,,,,,,0.19929
1109.68,,0.2528,0.2649,0.2087,0.1975,0.1624,0.1561,
1110.231,0.1259,,,,,,,
1110.52879,,,,,,,,0.19926
1110.53,,0.2523,0.2635,0.2081,0.1968,0.1618,0.1556,
1111.149,0.126,,,,,,,
1111.37967,,,,,,,,0.19925
1111.38,,0.2518,0.262,0.2076,0.1961,0.1611,0.155,
1112.067,0.1263,,,,,,,
1112.23,,0.2513,0.2605,0.2071,0.1953,0.1604,0.1542,
1112.23054,,,,,,,,0.19923
1112.984,0.1266,,,,,,,
1113.08,,0.2508,0.2589,0.2066,0.1946,0.1598,0.1534,
1113.08141,,,,,,,,0.19923
1113.902,0.1269,,,,,,,
1113.93,,0.2503,0.2575,0.2061,0.1939,0.1592,0.1527,
1113.93228,,,,,,,,0.19922
1114.78,,0.2498,0.2563,0.2056,0.1933,0.1588,0.152,
1114.78315,,,,,,,,0.19923
1114.82,0.127,,,,,,,
1115.63,,0.2494,0.2554,0.2051,0.1929,0.1586,0.1516,
1115.63402,,,,,,,,0.19923
1115.738,0.1269,,,,,,,
1116.48,,0.2489,0.2549,0.2047,0.1927,0.1586,0.1514,
1116.4849,,,,,,,,0.19925
1116.655,0.1266,,,,,,,
1117.33577,,,,,,,,0.19926
1117.34,,0.2485,0.255,0.2042,0.1927,0.159,0.1516,
1117.573,0.1262,,,,,,,
1118.18664,,,,,,,,0.19929
1118.19,,0.248,0.2554,0.2038,0.193,0.1596,0.1521,
1118.491,0.1255,,,,,,,
1119.03751,,,,,,,,0.19932
1119.04,,0.2476,0.2562,0.2034,0.1935,0.1603,0.1528,
1119.408,0.1246,,,,,,,
1119.88838,,,,,,,,0.19935
1119.89,,0.2472,0.2574,0.2029,0.1943,0.1612,0.1539,
1120.326,0.1237,,,,,,,
1120.73925,,,,,,,,0.19939
1120.74,,0.2468,0.2588,0.2025,0.1952,0.1622,0.155,
1121.244,0.1227,,,,,,,
1121.59,,0.2464,0.2603,0.2021,0.1962,0.1631,0.1562,
1121.59013,,,,,,,,0.19943
1122.162,0.1216,,,,,,,
1122.44,,0.246,0.2616,0.2017,0.1972,0.1638,0.1573,
1122.441,,,,,,,,0.19947
1123.079,0.1207,,,,,,,
1123.29,,0.2456,0.2626,0.2014,0.198,0.1643,0.1581,
1123.29187,,,,,,,,0.19952
1123.997,0.1199,,,,,,,
1124.14,,0.2452,0.2631,0.201,0.1986,0.1643,0.1584,
1124.14274,,,,,,,,0.19957
1124.915,0.1191,,,,,,,
1124.99,,0.2448,0.2629,0.2006,0.1988,0.1639,0.1584,
1124.99361,,,,,,,,0.19963
1125.832,0.1185,,,,,,,
1125.84,,0.2445,0.2621,0.2003,0.1987,0.1631,0.1578,
1125.84448,,,,,,,,0.19968
1126.69536,,,,,,,,0.19974
1126.7,,0.2441,0.2605,0.1999,0.1983,0.162,0.1568,
1126.75,0.1179,,,,,,,
1127.5462300000002,,,,,,,,0.1998
1127.55,,0.2438,0.2582,0.1996,0.1975,0.1605,0.1554,
1127.668,0.1174,,,,,,,
1128.3971,,,,,,,,0.19987
1128.4,,0.2435,0.2553,0.1993,0.1965,0.1589,0.1536,
1128.585,0.1169,,,,,,,
1129.24797,,,,,,,,0.19994
1129.25,,0.2431,0.252,0.199,0.1953,0.1572,0.1517,
1129.503,0.1165,,,,,,,
1130.09884,,,,,,,,0.20002
1130.1,,0.2428,0.2484,0.1987,0.1942,0.1557,0.1499,
1130.421,0.1161,,,,,,,
1130.94971,,,,,,,,0.2001
1130.95,,0.2425,0.2449,0.1984,0.1931,0.1543,0.1482,
1131.339,0.1157,,,,,,,
1131.8,,0.2422,0.2415,0.1981,0.1922,0.1532,0.1469,
1131.80058,,,,,,,,0.20018
1132.256,0.1154,,,,,,,
1132.65,,0.242,0.2384,0.1978,0.1915,0.1525,0.146,
1132.65146,,,,,,,,0.20027
1133.174,0.1152,,,,,,,
1133.5,,0.2417,0.2358,0.1975,0.1912,0.152,0.1456,
1133.50233,,,,,,,,0.20037
1134.092,0.1151,,,,,,,
1134.35,,0.2414,0.2338,0.1973,0.191,0.152,0.1458,
1134.3532,,,,,,,,0.20047
1135.009,0.1152,,,,,,,
1135.2,,0.2412,0.2324,0.197,0.1912,0.1522,0.1465,
1135.20407,,,,,,,,0.20058
1135.927,0.1155,,,,,,,
1136.05,,0.2409,0.2316,0.1968,0.1914,0.1526,0.1476,
1136.05494,,,,,,,,0.20068
1136.845,0.1161,,,,,,,
1136.90581,,,,,,,,0.2008
1136.91,,0.2407,0.2313,0.1966,0.1916,0.1532,0.1489,
1137.75669,,,,,,,,0.2009099999999999
1137.76,,0.2405,0.2314,0.1964,0.1918,0.1538,0.1505,
1137.763,0.1167,,,,,,,
1138.60756,,,,,,,,0.20103
1138.61,,0.2402,0.2317,0.1961,0.1918,0.1544,0.152,
1138.68,0.1175,,,,,,,
1139.45843,,,,,,,,0.2011599999999999
1139.46,,0.24,0.2321,0.1959,0.1915,0.1551,0.1533,
1139.598,0.1182,,,,,,,
1140.3093,,,,,,,,0.20128
1140.31,,0.2398,0.2325,0.1957,0.1908,0.1557,0.1545,
1140.516,0.1188,,,,,,,
1141.16,,0.2396,0.2327,0.1955,0.1897,0.1564,0.1553,
1141.16017,,,,,,,,0.2014099999999999
1141.433,0.1192,,,,,,,
1142.01,,0.2394,0.2327,0.1953,0.1883,0.1571,0.1557,
1142.01104,,,,,,,,0.20155
1142.351,0.1193,,,,,,,
1142.86,,0.2392,0.2325,0.1952,0.1865,0.1577,0.1556,
1142.8619199999998,,,,,,,,0.20169
1143.269,0.119,,,,,,,
1143.71,,0.2389,0.2321,0.195,0.1846,0.1583,0.1552,
1143.71279,,,,,,,,0.2018299999999999
1144.186,0.1183,,,,,,,
1144.56,,0.2387,0.2317,0.1948,0.1825,0.159,0.1544,
1144.56366,,,,,,,,0.20197
1145.104,0.1171,,,,,,,
1145.41,,0.2385,0.2313,0.1946,0.1805,0.1596,0.1533,
1145.41453,,,,,,,,0.2021099999999999
1146.022,0.1156,,,,,,,
1146.2654,,,,,,,,0.20226
1146.27,,0.2383,0.2311,0.1945,0.1786,0.1603,0.1521,
1146.94,0.1137,,,,,,,
1147.11627,,,,,,,,0.2024
1147.12,,0.2381,0.2309,0.1943,0.1771,0.1608,0.1508,
1147.857,0.1115,,,,,,,
1147.96715,,,,,,,,0.20255
1147.97,,0.2379,0.231,0.1942,0.176,0.1611,0.1494,
1148.775,0.1091,,,,,,,
1148.81802,,,,,,,,0.20269
1148.82,,0.2377,0.2312,0.1941,0.1753,0.1611,0.148,
1149.66889,,,,,,,,0.20284
1149.67,,0.2376,0.2317,0.1939,0.1751,0.1609,0.1467,
1149.693,0.1066,,,,,,,
1150.51976,,,,,,,,0.20298
1150.52,,0.2374,0.2324,0.1938,0.1755,0.1604,0.1455,
1150.61,0.104,,,,,,,
1151.37,,0.2372,0.2331,0.1937,0.1762,0.1596,0.1446,
1151.37063,,,,,,,,0.20313
1151.528,0.1015,,,,,,,
1152.22,,0.2371,0.2338,0.1936,0.1774,0.1585,0.1438,
1152.2215,,,,,,,,0.20328
1152.446,0.09902,,,,,,,
1153.07,,0.2369,0.2343,0.1934,0.1789,0.1573,0.1434,
1153.07237,,,,,,,,0.20344
1153.364,0.09663,,,,,,,
1153.92,,0.2368,0.2345,0.1933,0.1804,0.1559,0.1431,
1153.92325,,,,,,,,0.2036099999999999
1154.281,0.09449,,,,,,,
1154.77,,0.2366,0.2344,0.1932,0.182,0.1544,0.1431,
1154.77412,,,,,,,,0.20378
1155.199,0.09273,,,,,,,
1155.62,,0.2365,0.2341,0.1931,0.1836,0.1529,0.1432,
1155.62499,,,,,,,,0.20395
1156.117,0.09142,,,,,,,
1156.47586,,,,,,,,0.20414
1156.48,,0.2364,0.2335,0.193,0.1852,0.1515,0.1436,
1157.034,0.09063,,,,,,,
1157.32673,,,,,,,,0.20434
1157.33,,0.2362,0.2327,0.193,0.1866,0.1502,0.1441,
1157.952,0.09043,,,,,,,
1158.1776,,,,,,,,0.20456
1158.18,,0.2361,0.2315,0.1929,0.1878,0.149,0.1445,
1158.87,0.09099,,,,,,,
1159.0284800000002,,,,,,,,0.2048
1159.03,,0.236,0.2298,0.1928,0.1885,0.1478,0.1448,
1159.788,0.09241,,,,,,,
1159.87935,,,,,,,,0.20504
1159.88,,0.2359,0.2274,0.1928,0.1887,0.1464,0.1448,
1160.705,0.09479,,,,,,,
1160.73,,0.2358,0.2241,0.1927,0.1883,0.1447,0.1443,
1160.73022,,,,,,,,0.20528
1161.58,,0.2357,0.2198,0.1926,0.1873,0.1425,0.1434,
1161.58109,,,,,,,,0.20554
1161.623,0.09807,,,,,,,
1162.43,,0.2356,0.2146,0.1926,0.1855,0.1399,0.1418,
1162.43196,,,,,,,,0.2058
1162.541,0.1021,,,,,,,
1163.28,,0.2355,0.2081,0.1925,0.1829,0.1367,0.1395,
1163.28283,,,,,,,,0.20608
1163.458,0.1067,,,,,,,
1164.13,,0.2354,0.2002,0.1925,0.1793,0.1327,0.1364,
1164.13371,,,,,,,,0.20636
1164.376,0.1118,,,,,,,
1164.98,,0.2353,0.1907,0.1924,0.1747,0.1279,0.1324,
1164.98458,,,,,,,,0.20663
1165.294,0.1172,,,,,,,
1165.83545,,,,,,,,0.20688
1165.84,,0.2352,0.1796,0.1923,0.169,0.1223,0.1276,
1166.211,0.1225,,,,,,,
1166.68632,,,,,,,,0.2071199999999999
1166.69,,0.235,0.1678,0.1922,0.1627,0.1162,0.1222,
1167.129,0.1274,,,,,,,
1167.53719,,,,,,,,0.20736
1167.54,,0.2349,0.1561,0.1921,0.1561,0.1099,0.1165,
1168.047,0.1315,,,,,,,
1168.38806,,,,,,,,0.20759
1168.39,,0.2347,0.145,0.192,0.1496,0.1037,0.1108,
1168.965,0.1347,,,,,,,
1169.23894,,,,,,,,0.20781
1169.24,,0.2345,0.1354,0.1918,0.1436,0.09783,0.1051,
1169.882,0.1369,,,,,,,
1170.08981,,,,,,,,0.2080199999999999
1170.09,,0.2342,0.1281,0.1916,0.1384,0.0927,0.1,
1170.8,0.1378,,,,,,,
1170.94,,0.234,0.124,0.1914,0.1346,0.08879,0.09589,
1170.9406800000002,,,,,,,,0.2082099999999999
1171.718,0.137,,,,,,,
1171.79,,0.2337,0.1241,0.1912,0.1326,0.08654,0.09326,
1171.79155,,,,,,,,0.2084
1172.635,0.1344,,,,,,,
1172.64,,0.2335,0.1296,0.191,0.133,0.08639,0.09256,
1172.64242,,,,,,,,0.20858
1173.49,,0.2332,0.1416,0.1907,0.1362,0.08872,0.09421,
1173.49329,,,,,,,,0.20878
1173.553,0.1297,,,,,,,
1174.34,,0.2328,0.1607,0.1905,0.1425,0.09378,0.09852,
1174.34416,,,,,,,,0.209
1174.471,0.1242,,,,,,,
1175.19504,,,,,,,,0.20922
1175.2,,0.2325,0.1862,0.1903,0.1517,0.1014,0.1056,
1175.389,0.1174,,,,,,,
1176.04591,,,,,,,,0.20945
1176.05,,0.2323,0.2173,0.1901,0.1632,0.1117,0.1154,
1176.306,0.1092,,,,,,,
1176.89678,,,,,,,,0.2097
1176.9,,0.232,0.2535,0.1899,0.1766,0.1247,0.128,
1177.224,0.1003,,,,,,,
1177.74765,,,,,,,,0.20997
1177.75,,0.2318,0.2939,0.1898,0.1914,0.1405,0.1435,
1178.59852,,,,,,,,0.2102699999999999
1178.6,,0.2317,0.3372,0.1897,0.2068,0.1587,0.1615,
1179.44939,,,,,,,,0.21058
1179.45,,0.2316,0.3803,0.1898,0.2218,0.1781,0.181,
1180.3,,0.2316,0.4199,0.1899,0.2356,0.1972,0.2015,
1180.30027,,,,,,,,0.2109199999999999
1181.15,,0.2318,0.4526,0.1901,0.2474,0.2146,0.2229,
1181.15114,,,,,,,,0.2112699999999999
1182.0,,0.2319,0.4754,0.1904,0.2564,0.229,0.2451,
1182.00201,,,,,,,,0.21166
1182.85,,0.2322,0.4859,0.1909,0.262,0.2388,0.2672,
1182.85288,,,,,,,,0.21206
1183.7,,0.2326,0.4833,0.1914,0.2638,0.2432,0.2868,
1183.70375,,,,,,,,0.21249
1184.55,,0.233,0.4686,0.1919,0.2617,0.2409,0.3013,
1184.55462,,,,,,,,0.21295
1185.4055,,,,,,,,0.2134199999999999
1185.41,,0.2335,0.4439,0.1925,0.256,0.2311,0.3084,
1186.2563699999998,,,,,,,,0.2139199999999999
1186.26,,0.2339,0.4119,0.193,0.247,0.2133,0.306,
1187.10724,,,,,,,,0.21443
1187.11,,0.2343,0.3751,0.1935,0.2353,0.1877,0.2926,
1187.95811,,,,,,,,0.21499
1187.96,,0.2347,0.3353,0.194,0.2218,0.1559,0.2678,
1188.80898,,,,,,,,0.21558
1188.81,,0.2351,0.2945,0.1944,0.2075,0.121,0.2326,
1189.65985,,,,,,,,0.2161699999999999
1189.66,,0.2354,0.2547,0.1948,0.1933,0.08678,0.1881,
1190.51,,0.2357,0.2177,0.1951,0.1804,0.05703,0.1362,
1190.51073,,,,,,,,0.21674
1191.36,,0.2359,0.1852,0.1954,0.1694,0.03491,0.07894,
1191.3616,,,,,,,,0.21727
1192.21,,0.2362,0.1566,0.1956,0.1611,0.02106,0.01873,
1192.21247,,,,,,,,0.21778
1193.06,,0.2364,0.1304,0.1958,0.1556,0.01499,-0.04153,
1193.06334,,,,,,,,0.21827
1193.91,,0.2365,0.1055,0.196,0.1536,0.01727,-0.09884,
1193.91421,,,,,,,,0.21874
1194.76508,,,,,,,,0.2191699999999999
1194.77,,0.2366,0.08066,0.1962,0.1555,0.02859,-0.1505,
1195.61596,,,,,,,,0.2195599999999999
1195.62,,0.2367,0.05457,0.1964,0.1618,0.04858,-0.1944,
1196.46683,,,,,,,,0.21989
1196.47,,0.2367,0.02498,0.1967,0.1716,0.07362,-0.2297,
1197.3177,,,,,,,,0.2201699999999999
1197.32,,0.2367,-0.01147,0.1969,0.1831,0.09618,-0.2578,
1198.1685699999998,,,,,,,,0.2204199999999999
1198.17,,0.2366,-0.05855,0.1972,0.1962,0.1092,-0.2794,
1199.01944,,,,,,,,0.2206699999999999
1199.02,,0.2366,-0.1193,0.1974,0.2122,0.1065,-0.2949,
1199.87,,0.2365,-0.1954,0.1976,0.2314,0.08321,-0.3046,
1199.87031,,,,,,,,0.22093
1200.72,,0.2363,-0.287,0.1978,0.251,0.03603,-0.3092,
1200.72118,,,,,,,,0.22119
1201.57,,0.2362,-0.3895,0.198,0.2635,-0.03423,-0.3119,
1201.57206,,,,,,,,0.22144
1202.42,,0.2362,-0.4997,0.1983,0.2589,-0.1279,-0.3199,
1202.4229300000002,,,,,,,,0.2217
1203.27,,0.2362,-0.6143,0.1986,0.2308,-0.2436,-0.3404,
1203.2738,,,,,,,,0.2219699999999999
1204.12,,0.2363,-0.7291,0.1989,0.1779,-0.3776,-0.3785,
1204.12467,,,,,,,,0.22228
1204.97554,,,,,,,,0.22264
1204.98,,0.2365,-0.8401,0.1994,0.1026,-0.5255,-0.4361,
1205.82641,,,,,,,,0.22307
1205.83,,0.2369,-0.9429,0.1999,0.01289,-0.6793,-0.5091,
1206.67729,,,,,,,,0.22354
1206.68,,0.2374,-1.03,0.2006,-0.07802,-0.8263,-0.5878,
1207.52816,,,,,,,,0.22399
1207.53,,0.238,-1.093,0.2014,-0.1562,-0.9533,-0.6608,
1208.37903,,,,,,,,0.22438
1208.38,,0.2387,-1.119,0.2023,-0.2108,-1.048,-0.7171,
1209.2299,,,,,,,,0.22468
1209.23,,0.2394,-1.1,0.2035,-0.2378,-1.1,-0.7487,
1210.08,,0.2402,-1.029,0.2048,-0.2414,-1.109,-0.7537,
1210.08077,,,,,,,,0.22498
1210.93,,0.2411,-0.9157,0.2062,-0.23,-1.084,-0.7374,
1210.93164,,,,,,,,0.22526
1211.78,,0.2419,-0.7742,0.2076,-0.2098,-1.034,-0.7059,
1211.78252,,,,,,,,0.22544
1212.63,,0.2428,-0.6201,0.209,-0.1852,-0.9702,-0.665,
1212.63339,,,,,,,,0.22544
1213.48,,0.2435,-0.4689,0.2103,-0.1587,-0.8987,-0.6188,
1213.48426,,,,,,,,0.22518
1214.3351300000002,,,,,,,,0.22461
1214.34,,0.2442,-0.332,0.2115,-0.1307,-0.8234,-0.5688,
1215.186,,,,,,,,0.22379
1215.19,,0.2448,-0.2106,0.2125,-0.1013,-0.7473,-0.5157,
1216.03687,,,,,,,,0.2228
1216.04,,0.2453,-0.1009,0.2133,-0.06901,-0.6722,-0.4594,
1216.88775,,,,,,,,0.22174
1216.89,,0.2457,0.004177,0.2137,-0.0311,-0.598,-0.3998,
1217.73862,,,,,,,,0.2207
1217.74,,0.246,0.1135,0.2138,0.01599,-0.5238,-0.3365,
1218.58949,,,,,,,,0.2196699999999999
1218.59,,0.2462,0.2317,0.2134,0.07522,-0.4505,-0.2697,
1219.44,,0.2462,0.356,0.2127,0.1452,-0.3795,-0.2011,
1219.44036,,,,,,,,0.21846
1220.29,,0.2462,0.4789,0.2117,0.2203,-0.3115,-0.1309,
1220.29123,,,,,,,,0.2172
1221.14,,0.2461,0.589,0.2104,0.2933,-0.2474,-0.05895,
1221.1421,,,,,,,,0.2160699999999999
1221.99,,0.2458,0.6748,0.209,0.3571,-0.1882,0.0156,
1221.99297,,,,,,,,0.2152
1222.84,,0.2454,0.7288,0.2076,0.4061,-0.1357,0.09295,
1222.84385,,,,,,,,0.21475
1223.69,,0.245,0.7512,0.2061,0.437,-0.09151,0.1717,
1223.69472,,,,,,,,0.2146699999999999
1224.54559,,,,,,,,0.2148699999999999
1224.55,,0.2445,0.7457,0.2048,0.4501,-0.05644,0.2481,
1225.39646,,,,,,,,0.21529
1225.4,,0.2442,0.716,0.2037,0.4489,-0.03103,0.3168,
1226.24733,,,,,,,,0.21588
1226.25,,0.244,0.6678,0.2029,0.439,-0.0152,0.3723,
1227.0982,,,,,,,,0.21659
1227.1,,0.2439,0.6083,0.2025,0.4263,-0.008136,0.4102,
1227.94908,,,,,,,,0.2174699999999999
1227.95,,0.2442,0.5434,0.2026,0.4125,-0.008662,0.4272,
1228.79995,,,,,,,,0.21861
1228.8,,0.2447,0.4769,0.2032,0.3969,-0.01508,0.4244,
1229.65,,0.2455,0.4115,0.2042,0.3749,-0.02719,0.4029,
1229.6508199999998,,,,,,,,0.2199
1230.5,,0.2469,0.3511,0.2055,0.3407,-0.04539,0.3642,
1230.50169,,,,,,,,0.22124
1231.35,,0.2487,0.3031,0.207,0.2911,-0.06946,0.3116,
1231.35256,,,,,,,,0.2225099999999999
1232.2,,0.2512,0.2831,0.2086,0.2261,-0.09764,0.2492,
1232.20343,,,,,,,,0.22363
1233.05,,0.2542,0.3079,0.2103,0.1495,-0.1271,0.1818,
1233.05431,,,,,,,,0.22474
1233.90518,,,,,,,,0.22584
1233.91,,0.2577,0.3672,0.2119,0.06883,-0.1544,0.1155,
1234.75605,,,,,,,,0.2268599999999999
1234.76,,0.2615,0.4354,0.2135,-0.006111,-0.1747,0.05751,
1235.60692,,,,,,,,0.22774
1235.61,,0.2655,0.4893,0.2148,-0.06557,-0.1826,0.01496,
1236.45779,,,,,,,,0.22841
1236.46,,0.2695,0.514,0.2157,-0.1012,-0.1726,-0.005778,
1237.30866,,,,,,,,0.22879
1237.31,,0.2735,0.5039,0.2161,-0.1079,-0.14,-0.0001333,
1238.15954,,,,,,,,0.22888
1238.16,,0.2773,0.4613,0.2161,-0.08954,-0.0862,0.02854,
1239.01,,0.2807,0.3956,0.2159,-0.05273,-0.01795,0.07229,
1239.01041,,,,,,,,0.2288
1239.86,,0.2835,0.324,0.2156,-0.00401,0.05528,0.1218,
1239.86128,,,,,,,,0.22869
1240.71,,0.2856,0.2706,0.2153,0.0512,0.1239,0.1684,
1240.71215,,,,,,,,0.22866
1241.56,,0.2867,0.2529,0.2151,0.1096,0.1806,0.2059,
1241.5630199999998,,,,,,,,0.22878
1242.41,,0.2867,0.2625,0.2151,0.1702,0.2221,0.2323,
1242.41389,,,,,,,,0.22829
1243.26,,0.2858,0.286,0.2154,0.2322,0.2503,0.2494,
1243.26476,,,,,,,,0.22746
1244.11564,,,,,,,,0.2269699999999999
1244.12,,0.2839,0.3184,0.2162,0.2959,0.2722,0.2629,
1244.96651,,,,,,,,0.22753
1244.97,,0.281,0.361,0.2178,0.3619,0.2981,0.2808,
1245.8173800000002,,,,,,,,0.22983
1245.82,,0.2771,0.4186,0.2206,0.4306,0.339,0.3109,
1246.66825,,,,,,,,0.2348199999999999
1246.67,,0.2722,0.4969,0.2247,0.5001,0.4022,0.3579,
1247.51912,,,,,,,,0.24304
1247.52,,0.2671,0.5862,0.2293,0.5662,0.4779,0.4138,
1248.36999,,,,,,,,0.2532
1248.37,,0.2614,0.6922,0.2348,0.63,0.5718,0.4833,
1249.22,,0.2553,0.8141,0.2411,0.6908,0.682,0.5649,
1249.22087,,,,,,,,0.26382
1250.07,,0.2491,0.9472,0.2476,0.7477,0.8012,0.6528,
1250.07174,,,,,,,,0.27329
1250.92,,0.244,1.079,0.2532,0.7981,0.9167,0.7369,
1250.9226099999998,,,,,,,,0.27987
