Wavelenght [nm],pristine,doped
345.740973093545,0.40904671457905606,
345.769895711338,0.38201252566735105,
345.789180145008,0.35497833675564705,
345.808466729879,0.327944147843943,
345.837400641473,0.30090995893223804,
345.856692605919,0.273699075975359,
345.885634588563,0.246664887063655,
345.904931934836,0.21963069815195102,
345.92423143446996,0.19259650924024602,
345.95318472226097,0.16543863449692,
345.972489606875,0.142132689938398,
345.991796646112,0.12015195071868598,
346.020761245675,0.0981888809034908,
346.040073673048,0.0762081416837782,
346.06904635650704,0.0542450718685832,
346.088364174272,0.0322643326488706,
346.10768414882597,0.0102765256673511,
346.136668155427,-0.0117095143737166,
346.155993523533,-0.0336955544147844,
346.17532104969297,-0.0532202464065709,
346.20431638607397,-0.0701475359342916,
346.22364930894895,-0.0870571560574949,
346.242984391143,-0.10398444558521601,
346.271991063949,-0.120911735112936,
346.291331546023,-0.13782135523614003,
346.320346320346,-0.15474864476385997,
346.33969220456396,-0.171693603696099,
346.35904025027196,-0.188532546201232,
346.388066372423,-0.20443501026694,
346.407419823444,-0.21645020533880902,
346.42677543722397,-0.228465400410678,
346.455812913861,-0.24048059548254602,
346.475173936126,-0.252495790554415,
346.50421952718904,-0.264510985626283,
346.523585960206,-0.27652618069815194,
346.54295455815804,-0.288541375770021,
346.572011515135,-0.30055657084188897,
346.591385527015,-0.31257176591375796,
346.610761705101,-0.319992915811088,
346.639830034664,-0.327414065708419,
346.659211629857,-0.33501190965092403,
346.688288086784,-0.342433059548255,
346.70767510135596,-0.349854209445585,
346.72706428431604,-0.357275359342916,
346.75615212528,-0.36469650924024605,
346.775546730801,-0.37211765913757705,
346.79494350598503,-0.37953880903490794,
346.82404273767196,-0.383249383983573,
346.843444938603,-0.385899794661191,
346.87255231061897,-0.38855020533880896,
346.89195993957395,-0.39120061601642697,
346.91136974037596,-0.393851026694045,
346.940488514591,-0.39632474332648904,
346.959903746607,-0.39897515400410705,
346.979321151747,-0.401625564681725,
347.00845133486297,-0.404275975359343,
347.027874174409,-0.40462936344969197,
347.047299188357,-0.403039117043121,
347.07644078708,-0.401625564681725,
347.095871238628,-0.40021201232032894,
347.12502099546504,-0.398621765913758,
347.14445688689796,-0.3972082135523611,
347.163894954925,-0.395794661190965,
347.193056138877,-0.394204414784394,
347.212499649987,-0.39279086242299793,
347.231945338971,-0.38996375770020497,
347.26111795676,-0.38501632443531797,
347.28056909202905,-0.380068891170431,
347.309749880962,-0.375121457905544,
347.329206464805,-0.36999733059548295,
347.348665228718,-0.365049897330596,
347.37785746302103,-0.36010246406570895,
347.397321678714,-0.35515503080082106,
347.416788075759,-0.35020759753593395,
347.445991762168,-0.34473008213552403,
347.465463614201,-0.336955544147844,
347.494675484811,-0.329181006160164,
347.51415279412595,-0.321583162217659,
347.533632286996,-0.31380862422997996,
347.562855621269,-0.3060340862423,
347.58234057463204,-0.298436242299795,
347.601827712836,-0.29066170431211497,
347.63106251752197,-0.28306386036960995,
347.65055511943496,-0.27528932238193,
347.679798121408,-0.265747843942505,
347.699296189328,-0.25620636550308,
347.718796444295,-0.246664887063655,
347.748050928263,-0.23712340862423004,
347.76755665245696,-0.227581930184805,
347.78706456498594,-0.21804045174538,
347.816330537713,-0.20849897330595496,
347.83584392269097,-0.19895749486653,
347.865118105818,-0.18941601642710498,
347.884636965548,-0.17916776180698202,
347.90415801582395,-0.168866498973306,
347.933443699318,-0.158529897330596,
347.952970227573,-0.148175626283368,
347.972498947664,-0.13783902464065698,
348.001796138303,-0.12748475359342898,
348.021330339601,-0.117130482546201,
348.040866734029,-0.10679388090349101,
348.070175438596,-0.0964396098562628,
348.089717317463,-0.0861913552361396,
348.119034250421,-0.0759961088295688,
348.138581616037,-0.065800862422998,
348.15813117699895,-0.0555879466119097,
348.18745963552595,-0.0453927002053388,
348.20701468647303,-0.0351797843942505,
348.22657193406195,-0.0249845379876797,
348.25591192495597,-0.0147680882956879,
348.275474665768,-0.00455870636550308,
348.30482289823306,0.0050499158110883,
348.32439113458196,0.014232705338808998,
348.343961569795,0.0234119609856263,
348.373321346294,0.0326000513347023,
348.392897280288,0.0417881416837782,
348.412475414442,0.0509762320328542,
348.441846741788,0.0601643223819302,
348.461430377968,0.0693524127310062,
348.490809960092,0.0785405030800822,
348.510399100618,0.0869334702258727,
348.529990443533,0.0944076283367557,
348.55938158819396,0.10186411704312101,
348.578978438703,0.109320605749487,
348.59857749290103,0.11677709445585199,
348.62798020692804,0.124251252566735,
348.647584771973,0.131707741273101,
348.676995754014,0.139181899383984,
348.69660583223197,0.14663838809034901,
348.71621811637,0.153370431211499,
348.745640679491,0.1586359137577,
348.765258480058,0.163901396303901,
348.78487848784897,0.16916687885010298,
348.814312638893,0.17443236139630403,
348.833938166371,0.17969784394250501,
348.853565902377,0.18499866529774103,
348.883011648191,0.190299486652977,
348.90264490714696,0.19542361396303895,
348.932098939134,0.20019435318275197,
348.95173772337097,0.20302145790554396,
348.971378718374,0.20602525667351101,
349.00084435688103,0.208852361396304,
349.02049088043196,0.211679466119097,
349.04013961605597,0.21450657084188898,
349.069616867945,0.217333675564682,
349.089271135385,0.220337474332649,
349.11875668675003,0.223164579055442,
349.13841648834295,0.22563829568788502,
349.158078504252,0.22616837782340898,
349.187575680775,0.22669845995893198,
349.20724323411,0.22705184804928102,
349.22691300306997,0.227581930184805,
349.256421811627,0.228112012320329,
349.276097121289,0.22864209445585199,
349.30561424265505,0.22917217659137598,
349.32529509536005,0.22952556468172503,
349.34497816593904,0.22987895277207396,
349.37450693113897,0.22828870636550302,
349.394195548042,0.22669845995893198,
349.41388638412997,0.22510821355236102,
349.443426800056,0.22351796714579103,
349.46312318575104,0.22175102669404503,
349.49267192784697,0.220160780287474,
349.512373865494,0.21857053388090397,
349.53207802458,0.216980287474333,
349.56163842922797,0.215390041067762,
349.581348143554,0.212032854209446,
349.601060080634,0.20867566735112897,
349.63063215474,0.20531848049281304,
349.65034965035005,0.20196129363449697,
349.67006937003,0.19878080082135502,
349.699653120505,0.19542361396303895,
349.719378402008,0.19206642710472302,
349.74897049698194,0.18870924024640698,
349.76870134266096,0.18535205338809,
349.78843441466904,0.180934702258727,
349.818038197873,0.17644667351129398,
349.837776837354,0.17192330595482502,
349.85751770448303,0.16739993839835698,
349.887133182844,0.162876570841889,
349.906879620746,0.158353203285421,
349.936503457034,0.153829835728953,
349.956255468067,0.149306468172485,
349.976009709012,0.144783100616016,
350.005645252343,0.13971198151950698,
350.025405069723,0.134552515400411,
350.045167118338,0.129393049281314,
350.074814375653,0.124233583162218,
350.094582004009,0.11907411704312101,
350.124237632708,0.11389698151950699,
350.14401084316904,0.108737515400411,
350.16378628713403,0.10357804928131402,
350.193453641729,0.0984009137577002,
350.21323467111,0.09313543121149902,
350.23301793532005,0.0878169404517454,
350.26269702276704,0.0825161190965093,
350.282485875706,0.0772152977412731,
350.312173348024,0.0718968069815195,
350.331967792061,0.0665959856262834,
350.351764473201,0.0612951642710472,
350.381463690308,0.0559766735112936,
350.401265965864,0.0506758521560575,
350.421070479851,0.0456047330595483,
350.45078144871803,0.0406042915811088,
350.47059156044196,0.035586180698151997,
350.500310927695,0.0305857392197125,
350.52012663952996,0.0255852977412731,
350.53994459207297,0.0205671868583162,
350.56967572305,0.0155596776180698,
350.58949927903,0.0105504014373717,
350.60932507704905,0.00553935831622177,
350.63906797873494,0.00103507371663244,
350.658899383519,-0.00332361498973306,
350.67873303167397,-0.007682657084188909,
350.708487711061,-0.0120434661190965,
350.728326969311,-0.0164042751540041,
350.758090065626,-0.0207615503080082,
350.777934936351,-0.0251258932238193,
350.797782052733,-0.0294902361396304,
350.827556938747,-0.0338545790554415,
350.84740967093904,-0.0375298151950719,
350.867264650123,-0.0409930184804928,
350.89705133284303,-0.0444738911704312,
350.916911931175,-0.0479370944558522,
350.94670704440597,-0.0514179671457906,
350.96657326427203,-0.0548811704312115,
350.98644173342,-0.0583620431211499,
351.016248655381,-0.0618252464065709,
351.03612274940497,-0.0653061190965093,
351.055999094049,-0.0679741991786448,
351.08581783176203,-0.0704302464065708,
351.105699804627,-0.0728686242299795,
351.135526986464,-0.0753246714579056,
351.155414589941,-0.0777630492813142,
351.175304446332,-0.0802190965092403,
351.205143455972,-0.0826574743326489,
351.225038946325,-0.0850958521560575,
351.244936690933,-0.0875518993839836,
351.274787535411,-0.0891774845995893,
351.294690917332,-0.0905733675564682,
351.32455021957804,-0.09196925051334698,
351.34445924120905,-0.0933651334702259,
351.364370519396,-0.0947433470225873,
351.394241668556,-0.0961392299794661,
351.41415858980906,-0.09753511293634501,
351.43407776896004,-0.0989309958932238,
351.46396077208703,-0.10032687885010302,
351.483885597664,-0.10092763860369601,
351.50381268248395,-0.10131636550308,
351.53370754663496,-0.10172276180698199,
351.55364028124296,-0.102111488706366,
351.583543621878,-0.102517885010267,
351.60348200867696,-0.10292428131416802,
351.623422657025,-0.103313008213552,
351.65333787079595,-0.103719404517454,
351.673284174702,-0.10410813141683802,
351.69323274150497,-0.103790082135524,
351.723159835484,-0.103313008213552,
351.74311406121495,-0.102853603696099,
351.77304964539,-0.102376529774127,
351.793009532456,-0.10191712525667401,
351.81297168473,-0.10145772073922,
351.842919161252,-0.100980646817248,
351.862886978236,-0.100521242299795,
351.88285706177805,-0.10004416837782301,
351.91281643773397,-0.0989840041067762,
351.932792189363,-0.0978354928131417,
351.962760069257,-0.0967046509240247,
351.98274149138496,-0.0955561396303902,
352.002725182389,-0.0944076283367557,
352.032704973881,-0.0932767864476386,
352.052694338766,-0.0921282751540041,
352.07268597387804,-0.0909797638603696,
352.102677684073,-0.0898489219712526,
352.12267499645,-0.0882763449691992,
352.152675224355,-0.0866860985626284,
352.172678216416,-0.0850958521560575,
352.192683481027,-0.0835056057494867,
352.222695639824,-0.0819153593429158,
352.24270658750703,-0.080325112936345,
352.262719809096,-0.0787348665297741,
352.292743905904,-0.0771446201232033,
352.312762813956,-0.0755543737166325,
352.33278399727203,-0.0737520944558522,
352.362820039215,-0.0719498151950719,
352.382846912387,-0.0701475359342916,
352.412891490934,-0.0683629260780288,
352.432924056389,-0.0665606468172485,
352.452958899437,-0.0647583675564682,
352.483015435345,-0.0629560882956879,
352.503055974074,-0.0611714784394251,
352.52309879175596,-0.0593691991786448,
352.553167292164,-0.0575845893223819,
352.573215808928,-0.0557823100616017,
352.60329285978304,-0.0539977002053388,
352.623347078061,-0.052213090349076,
352.643403577624,-0.0504284804928131,
352.673492605233,-0.0486262012320329,
352.69355480971603,-0.04684159137577,
352.713619296848,-0.0450569815195072,
352.743720308366,-0.0432900410677618,
352.763790503826,-0.0416821252566735,
352.793900079663,-0.0400918788501027,
352.813975985887,-0.0384839630390144,
352.8340541771,-0.0368760472279261,
352.86417574912497,-0.0352681314168378,
352.884259654515,-0.0336602156057495,
352.904345846259,-0.0320522997946612,
352.934479421643,-0.0304443839835729,
352.95457133098,-0.0289248151950719,
352.98471348458503,-0.0275996098562628,
353.004811113958,-0.0262744045174538,
353.02491103202794,-0.0249668685831622,
353.05506520129796,-0.0236416632443532,
353.075170842825,-0.0223164579055442,
353.09527877441803,-0.0210089219712526,
353.125444966539,-0.0196837166324435,
353.145558625011,-0.0183585112936345,
353.175733409285,-0.0171622926078029,
353.195852797083,-0.016148068788501002,
353.215974477297,-0.0151338449691992,
353.24616129675496,-0.0141196211498973,
353.26628870972297,-0.0131036303901437,
353.286418416479,-0.0120894065708419,
353.316617278322,-0.0110734158110883,
353.336752721263,-0.0100591919917865,
353.356890459364,-0.009043201232032859,
353.3871013708,-0.00814912936344969,
353.407244848519,-0.007366374743326491,
353.437464371223,-0.00658538706365503,
353.457613591015,-0.00580263244353183,
353.477765108324,-0.005019877823408629,
353.50799669298993,-0.00423889014373717,
353.52815395580905,-0.0034561355236139603,
353.54831351752097,-0.00267338090349076,
353.578557171372,-0.0018906262833675602,
353.598722482035,-0.0011603497946611901,
353.62897476115796,-0.00045834435318275194,
353.64914582323195,0.000243484394250513,
353.669319186561,0.0009454898357289529,
353.69958354726504,0.00164767197125257,
353.71976266545,0.00235003080082136,
353.73994408626703,0.00305150616016427,
353.770220535791,0.0037547484599589295,
353.79040771491304,0.00445799075975359,
353.82069280374395,0.0052513470225872706,
353.840885743637,0.0060694404517453796,
353.861080988528,0.006887533880903489,
353.891378178601,0.0077056273100616,
353.911579187716,0.00852372073921971,
353.93178250321097,0.00934358110882957,
353.962091801781,0.0101616745379877,
353.982300884956,0.0109797679671458,
354.012618836897,0.0117996283367556,
354.032833690221,0.0129198685831622,
354.05305085229696,0.0140577782340862,
354.083380925186,0.0151956878850103,
354.10360386087194,0.0163335975359343,
354.123829106694,0.0174715071868583,
354.15417130779997,0.0186058829568789,
354.174402330696,0.0197543942505134,
354.19463566511496,0.0208852361396304,
354.22499000171405,0.0220867556468173,
354.24522911667196,0.023712340862422996,
354.275592125939,0.0253202566735113,
354.295837023915,0.026945841889117,
354.316084235792,0.0285714271047228,
354.346459393039,0.0301970123203285,
354.36671239140406,0.0318225975359343,
354.38696770505896,0.033448182751540004,
354.41735501757796,0.0350737679671458,
354.437616121195,0.0368760472279261,
354.468012120519,0.0390670533880904,
354.488279016581,0.0412757289527721,
354.508548230316,0.0434844045174538,
354.538956397427,0.0456930800821355,
354.55923140708506,0.0478840862422998,
354.57950873581,0.0500927618069815,
354.609929078014,0.0523014373716633,
354.630212206143,0.054510112936345,
354.660641249321,0.0569661601642711,
354.680930179343,0.0597402566735113,
354.70122143081903,0.0625143531827516,
354.731662661632,0.0652884496919918,
354.751959718487,0.068062546201232,
354.77225909819197,0.0708366427104723,
354.80271252396403,0.0735930698151951,
354.823017712536,0.0763671663244353,
354.85347985348,0.0791412628336756,
354.873790853414,0.0822157392197125,
354.894104178592,0.0854139014373717,
354.924578527063,0.0886297330595483,
354.94489766709603,0.0918455646817249,
354.96521913377,0.09504372689938399,
354.995705697109,0.0982595585215606,
355.016032982135,0.101475390143737,
355.036362595201,0.104691221765914,
355.066861380752,0.10790705338809001,
355.08719681567004,0.111299579055442,
355.11770433587304,0.114727443531828,
355.13804559514296,0.118137638603696,
355.15838918485395,0.12156550308008197,
355.188908939876,0.124993367556468,
355.209258357444,0.128421232032854,
355.22961010685503,0.13184909650924,
355.260142104057,0.13525929158110903,
355.280499684832,0.138687156057495,
355.31104043095803,0.14202667351129403,
355.331403845603,0.14536619096509198,
355.35176959449797,0.14870570841889097,
355.382322595437,0.15204522587269,
355.402694181714,0.15538474332648902,
355.423068103646,0.158724260780287,
355.45363336677696,0.16208144763860402,
355.474013129605,0.16542096509240198,
355.504587155963,0.168636796714579,
355.52497276220004,0.171569917864476,
355.545360706503,0.17452070841889097,
355.575947007714,0.17740082135523602,
355.596340798945,0.180404620123203,
355.61673692965104,0.18340841889117002,
355.647335513107,0.186235523613963,
355.667737494263,0.18923932238192998,
355.69834485528196,0.19224312114989703,
355.71875268940596,0.19471683778234103,
355.739162865422,0.19701386036960997,
355.76978252137496,0.199310882956879,
355.790198553885,0.201607905544148,
355.810616929699,0.20372823408624202,
355.84124888799596,0.20602525667351101,
355.861673123834,0.20832227926077998,
355.89231387406,0.21061930184804897,
355.912743972445,0.212916324435318,
355.933176416557,0.214329876796715,
355.96382948184305,0.21574342915811104,
355.984267792036,0.217156981519507,
356.00470844937,0.21857053388090397,
356.035373837143,0.219807392197125,
356.055820364096,0.22122094455852198,
356.07626923960504,0.222634496919918,
356.106946957296,0.22404804928131397,
356.127401705965,0.225284907597536,
356.15808823529403,0.22563829568788502,
356.17854885965403,0.22599168377823398,
356.199011834999,0.226345071868583,
356.22971070700106,0.22669845995893198,
356.25017956158206,0.22705184804928102,
356.270650768568,0.22740523613963,
356.30136199069,0.22775862422997895,
356.32183908046,0.22828870636550302,
356.35255912866097,0.22828870636550302,
356.373042103751,0.227581930184805,
356.39352743367897,0.22705184804928102,
356.424259844783,0.226345071868583,
356.444751063585,0.22581498973306,
356.465244638648,0.22510821355236102,
356.49598942011903,0.22457813141683802,
356.516488887611,0.22387135523614002,
356.547242509633,0.22334127310061605,
356.56774787209605,0.22228110882956895,
356.58825559325896,0.220690862422998,
356.619021598458,0.219277310061602,
356.639535218154,0.217863757700205,
356.660051197975,0.216273511293635,
356.69082959383303,0.214859958932238,
356.711351475749,0.21344640657084196,
356.742138726661,0.212032854209446,
356.76266651322,0.210442607802875,
356.783196662351,0.20849897330595496,
356.813996316759,0.20637864476386,
356.834532374101,0.20425831622176602,
356.85507079544095,0.20213798767967198,
356.88588286084297,0.200017659137577,
356.906427193967,0.19807402464065696,
356.926973892519,0.195953696098563,
356.957798376418,0.19383336755646802,
356.978350990327,0.19171303901437398,
357.009184349178,0.18923932238192998,
357.029742881,0.18676560574948697,
357.050303780702,0.18429188911704297,
357.081149570927,0.18181817248460003,
357.101716392121,0.17934445585215603,
357.122285582628,0.17687073921971302,
357.15314381174596,0.17439702258726902,
357.17371892732695,0.17192330595482502,
357.20458604597604,0.16941425051334696,
357.22516708919096,0.166834517453799,
357.245750504177,0.164272453798768,
357.276630074625,0.16169272073922,
357.29721942083296,0.159130657084189,
357.317811140247,0.156550924024641,
357.348703170029,0.153971190965092,
357.369300824255,0.15140912731006198,
357.400201758178,0.148829394250513,
357.42080534978203,0.146338008213552,
357.44141131705595,0.143881960985626,
357.47232472324697,0.141408244353183,
357.492936631494,0.13893452772073903,
357.513550916849,0.136478480492813,
357.54447680286,0.13400476386037,
357.565097032786,0.131531047227926,
357.596031837582,0.129057330595483,
357.616658014651,0.126636622176591,
357.637286571297,0.124392607802875,
357.668233868874,0.122166262833676,
357.68886837626604,0.119939917864476,
357.70950526467595,0.11769590349075999,
357.740465062605,0.11546955852156099,
357.761107905366,0.113243213552361,
357.78175313059,0.110999199178645,
357.812725436445,0.10877285420944599,
357.833376619629,0.106670195071869,
357.864357864358,0.10472656057494902,
357.885015008081,0.10276525667351101,
357.905674536743,0.100803952772074,
357.93666830239897,0.0988426488706366,
357.957333795214,0.0968990143737166,
357.978001674413,0.0949377104722793,
358.00900796858804,0.0929764065708419,
358.029681815557,0.0910151026694045,
358.060697063325,0.0892481622176591,
358.08137688064903,0.0874988911704312,
358.10205908684,0.0857672895277208,
358.133086876155,0.0840180184804928,
